7.436145939662726980e-07
1.560900035945130138e-06
2.457806623022795340e-06
3.442889037444509803e-06
4.527359514186914278e-06
5.724919138912419435e-06
7.051355177638030406e-06
8.523914607242063357e-06
1.016048938933971094e-05
1.197867516185422953e-05
1.399478837680158752e-05
1.622294298321890963e-05
1.867429252818874274e-05
2.135653523902092090e-05
2.427375899786269101e-05
2.742667230788129029e-05
3.081322906276558627e-05
3.442961250111706436e-05
3.827150173761447507e-05
4.233550827165317320e-05
4.662064480427908716e-05
5.112967718166397933e-05
5.587021277204919838e-05
6.085539509930800600e-05
6.610410586492098534e-05
7.164062182066463264e-05
7.749373221311622775e-05
8.369538475470408043e-05
9.027898331939566783e-05
9.727749934556646641e-05
1.047215768987170594e-04
1.126378092383557004e-04
1.210473456952890128e-04
1.299649549108532892e-04
1.393986268988651718e-04
1.493497454371956769e-04
1.598138087973919848e-04
1.707816266760507368e-04
1.822408801504866083e-04
1.941779035743789687e-04
2.065795339085588320e-04
2.194348731387424194e-04
2.327368215179690379e-04
2.464832622616467306e-04
2.606778112136606015e-04
2.753300860886187182e-04
2.904554953742285181e-04
3.060745913583500215e-04
3.222120692965873461e-04
3.388955210534989860e-04
3.561540640102848305e-04
3.740169630529465447e-04
3.925123441780528372e-04
4.116660637640360827e-04
4.315007524810585008e-04
4.520350054908785220e-04
4.732826513655558932e-04
4.952520105884762299e-04
5.179450567792884264e-04
5.413564215015482899e-04
5.654722339970262059e-04
5.902688544008429569e-04
6.157116338529289258e-04
6.417539053162810408e-04
6.683364605827744540e-04
6.953877875687799418e-04
7.228253153237865778e-04
7.505578341737903763e-04
7.784891248378550529e-04
8.065226549263087696e-04
8.345670088170177884e-04
8.625415411608093955e-04
8.903816201851768534e-04
9.180427846043725647e-04
9.455031984267568950e-04
9.727639592221620649e-04
9.998470858743318396e-04
1.026791344847872035e-03
1.053646409434101736e-03
1.080466112639888281e-03
1.107301687297109621e-03
1.134195850424159213e-03
1.161178389469227608e-03
1.188263597415629286e-03
1.215449562913406816e-03
1.242719032503174399e-03
1.270041379955236943e-03
1.297375158937308544e-03
1.324670761495078380e-03
1.351872819155577193e-03
1.378922126525455568e-03
1.405757008104938695e-03
1.432314167764425685e-03
1.458529145706852909e-03
1.484336554369733874e-03
1.509670271943187436e-03
1.534463744201090959e-03
1.558650491241828431e-03
1.582164848175385014e-03
1.604942901253212078e-03
1.626923524864764235e-03
1.648049388197385216e-03
1.668267787335134993e-03
1.687531169444122722e-03
1.705797247213423126e-03
1.723028647969297288e-03
1.739192095342514781e-03
1.754257174343811475e-03
1.768194776954572570e-03
1.780975361155338020e-03
1.792567179999933697e-03
1.802934647506335402e-03
1.812037002619750837e-03
1.819827409402271405e-03
1.826252591405062506e-03
1.831253044884243158e-03
1.834763815871492433e-03
1.836715767752527834e-03
1.837037215806110093e-03
1.835655768441828237e-03
1.832500195555949399e-03
1.827502145012730068e-03
1.820597548999314513e-03
1.811727599852890405e-03
1.800839223884598403e-03
1.787885034600645391e-03
1.772822797513185769e-03
1.755614483471020122e-03
1.736225023503662219e-03
1.714620902973262384e-03
1.690768743668957840e-03
1.664634017877809815e-03
1.636180019230837942e-03
1.605367184088737865e-03
1.572152818294694429e-03
1.536491241371361338e-03
1.498334317592719305e-03
1.457632304836814583e-03
1.414334922137553329e-03
1.368392519561061017e-03
1.319757231804728368e-03
1.268384009138067477e-03
1.214231442446010245e-03
1.157262328226262623e-03
1.097443949962978969e-03
1.034748081397617427e-03
9.691507429399308241e-04
9.006317629899781001e-04
8.291742094041969040e-04
7.547637616303301848e-04
6.773880915989483834e-04
5.970363131668883711e-04
5.136985480916423166e-04
4.273656428791654011e-04
3.380290560334529956e-04
2.456809193690877150e-04
1.503142608074927605e-04
5.192336136514971506e-05
-4.949579164927545699e-05
-1.539449984109174602e-04
-2.614233307354065037e-04
-3.719266470629248506e-04
-4.854471740065992389e-04
-6.019731838176449207e-04
-7.214887882027135480e-04
-8.439738571013985675e-04
-9.694040575053556111e-04
-1.097750994796712655e-03
-1.228982430115885174e-03
-1.363062543276568651e-03
-1.499952211251310641e-03
-1.639609275831106208e-03
-1.781988779511731614e-03
-1.927043155301742848e-03
-2.074722363318425456e-03
-2.224973973457742248e-03
-2.377743197429913434e-03
-2.532972874317274484e-03
-2.690603412766743707e-03
-2.850572692329061270e-03
-3.012815927750584974e-03
-3.177265502726569872e-03
-3.343850782250573118e-03
-3.512497914346080462e-03
-3.683129632884028434e-03
-3.855665073982236443e-03
-4.030019619090005958e-03
-4.206104777140349041e-03
-4.383828114636148868e-03
-4.563093236060288341e-03
-4.743799809598908679e-03
-4.925843627837395849e-03
-5.109116691367712564e-03
-5.293507304061507990e-03
-5.478900169803674683e-03
-5.665176480575786697e-03
-5.852213985808067329e-03
-6.039887034508448910e-03
-6.228066585466988242e-03
-6.416620185927846519e-03
-6.605411923735609106e-03
-6.794302360570404591e-03
-6.983148454238372396e-03
-7.171803477289913353e-03
-7.360116939117089530e-03
-7.547934519558334790e-03
-7.735098022699747611e-03
-7.921445358541404080e-03
-8.106810557527224792e-03
-8.291023820134888617e-03
-8.473911602109755054e-03
-8.655296735318705054e-03
-8.834998583328918312e-03
-9.012833228734085100e-03
-9.188613686139419576e-03
-9.362150131420127891e-03
-9.533250135080825055e-03
-9.701718885679808807e-03
-9.867359388774969708e-03
-1.002997262811734271e-02
-1.018935767891647123e-02
-1.034531176739560826e-02
-1.049763027571542010e-02
-1.064610669601256943e-02
-1.079053254138371762e-02
-1.093069722494810492e-02
-1.106638792082216376e-02
-1.119738942335380197e-02
-1.132348402311894597e-02
-1.144445141871356514e-02
-1.156006868082695357e-02
-1.167011027939163573e-02
-1.177434817758265043e-02
-1.187255199042838369e-02
-1.196448920182165490e-02
-1.204992543101475987e-02
-1.212862473691864000e-02
-1.220034994528605005e-02
-1.226486298104088879e-02
-1.232192518706237347e-02
-1.237129761233161061e-02
-1.241274125568156070e-02
-1.244601725487908331e-02
-1.247088701365168563e-02
-1.248711226224522887e-02
-1.249445505133930240e-02
-1.249267768503642753e-02
-1.248154260531946641e-02
-1.246081224633148812e-02
-1.243024888095790176e-02
-1.238961448428760673e-02
-1.233867063871136455e-02
-1.227717850321841282e-02
-1.220489886398362991e-02
-1.212159227444619888e-02
-1.202701928219739036e-02
-1.192094072972409158e-02
-1.180311810881112984e-02
-1.167331394514876247e-02
-1.153129218967037864e-02
-1.137681859490577430e-02
-1.120966105739299237e-02
-1.102958991117435408e-02
-1.083637816287614727e-02
-1.062980166514700120e-02
-1.040963923063786822e-02
-1.017567269158702742e-02
-9.927686910216570321e-03
-9.665469744455333634e-03
-9.388811974612363415e-03
-9.097507200394375909e-03
-8.791351722199265001e-03
-8.470144423141100914e-03
-8.133686667808233406e-03
-7.781782231915252736e-03
-7.414237276089702053e-03
-7.030860377812664722e-03
-6.631462636563455020e-03
-6.215857865965478124e-03
-5.783862881374722195e-03
-5.335297882003287376e-03
-4.869986915149560058e-03
-4.387758398776213722e-03
-3.888445669337582677e-03
-3.371887515377338957e-03
-2.837928654556352674e-03
-2.286420113063642595e-03
-1.717219472414461797e-03
-1.130190959379526010e-03
-5.252053689357614411e-04
9.786017446319398802e-05
7.391225971547758658e-04
1.398693364146625512e-03
2.076679027598979637e-03
2.773181777080882711e-03
3.488299924793431331e-03
4.222128258359536361e-03
4.974758202805915422e-03
5.746277751587878027e-03
6.536771151191589878e-03
7.346318351097697909e-03
8.174994256880601523e-03
9.022867846187245661e-03
9.890001223881367265e-03
1.077644870299220708e-02
1.168225600150471499e-02
1.260745964100294485e-02
1.355208662200995534e-02
1.451615443302203129e-02
1.549967142568387662e-02
1.650263755715992292e-02
1.752504546350729803e-02
1.856688178784892188e-02
1.962812864967502374e-02
2.070876511292443767e-02
2.180876849584492336e-02
2.292811536787132259e-02
2.406678209836395771e-02
2.522474485771161734e-02
2.640197902053619677e-02
2.759845798012955376e-02
2.881415144821618951e-02
3.004902337808974117e-02
3.130302970313477567e-02
3.257611611656394124e-02
3.386821612392126868e-02
3.517924957539267372e-02
3.650912183473072753e-02
3.785772367403340832e-02
3.922493190782312678e-02
4.061061070465514511e-02
4.201461344844545365e-02
4.343678497226320656e-02
4.487696395903167934e-02
4.633498529739650540e-02
4.781068219510874184e-02
4.930388788326311306e-02
5.081443678878194703e-02
5.234216510565835312e-02
5.388691075310468592e-02
5.544851276514378702e-02
5.702681020487179037e-02
5.862164073194465336e-02
6.023283897008928356e-02
6.186023482092019299e-02
6.350365185103928889e-02
6.516290584315068135e-02
6.683780355316455701e-02
6.852814166162424225e-02
7.023370585991706161e-02
7.195426998128076623e-02
7.368959508262643010e-02
7.543942840898865132e-02
7.720350222528105100e-02
7.898153257279610928e-02
8.077321809015408638e-02
8.257823911659264993e-02
8.439625735300042286e-02
8.622691637573694223e-02
8.806984326649164307e-02
8.992465153202840178e-02
9.179094534428852703e-02
9.366832494899332562e-02
-4.447084545592508431e-02
-3.801662464465624391e-02
-3.212843754782607197e-02
-2.724019891387678000e-02
-2.373593608308580127e-02
-2.191097968875509172e-02
-2.193633974543288123e-02
-2.383036911691492621e-02
-2.744183980270266388e-02
-3.244810151615970528e-02
-3.837089526397226280e-02
-4.461056197577344812e-02
-5.049701608389792207e-02
-5.535345079578897487e-02
-5.856680572919163025e-02
-5.965778812860361713e-02
-5.834271570076526858e-02
-5.457968079011943363e-02
-4.859266369756980175e-02
-4.086931209215143024e-02
-3.213089936267989055e-02
-2.327593740376857068e-02
-1.530159159964328275e-02
-9.209362982974575451e-03
-5.903628271673899697e-03
-6.093467339497601887e-03
-1.020915328122061483e-02
-1.834391858530526331e-02
-3.022879048663001944e-02
-4.524396669870402177e-02
-6.246556168380792973e-02
-8.074262854286808067e-02
-9.879655042202550863e-02
-1.153330960636193836e-01
-1.291564749837692538e-01
-1.392746257173523572e-01
-1.449858756109986546e-01
-1.459390958937167859e-01
-1.421623652695211959e-01
-1.340584912735766077e-01
-1.223689353655920409e-01
-1.081103108026004039e-01
-9.248958211144993335e-02
-7.680555513370786180e-02
-6.234531669717678637e-02
-5.028481276523365240e-02
-4.160242817629627998e-02
-3.701303901621848247e-02
-3.692764680755937501e-02
-4.144075951552425585e-02
-5.034458840225999876e-02
-6.316612172654856305e-02
-7.922036579324648331e-02
-9.767087076814519320e-02
-1.175876946644651699e-01
-1.379937626104787984e-01
-1.578933045330760399e-01
-1.762802961295413251e-01
-1.921297300417326992e-01
-2.043791211560336829e-01
-2.119111013944879884e-01
-2.135497604577040465e-01
-2.080831569119038216e-01
-1.943218369103679177e-01
-1.711981629002533867e-01
-1.379041010979066839e-01
-9.405655367308418668e-02
-3.987038942779816408e-02
2.368839357670884938e-02
9.480127460501412695e-02
1.707783432877457430e-01
2.481451217031757084e-01
3.228447930364875540e-01
3.905480174651870251e-01
4.470432155679808783e-01
4.886619924119320890e-01
5.126809575067426961e-01
5.176368074049628731e-01
5.034995249732484579e-01
4.716695035611156439e-01
4.247951277635335643e-01
3.664411355683770966e-01
3.006662422693839876e-01
2.315830149683268668e-01
1.629698580967531840e-01
9.798624749793125033e-02
3.901509932262034464e-02
-1.237097953492138913e-02
-5.534317462195115223e-02
-8.968399850322308908e-02
-1.156249097709836915e-01
-1.336854443133458914e-01
-1.445372525611737791e-01
-1.489070917050272502e-01
-1.475234984651185854e-01
-1.411035274267255502e-01
-1.303694445027084314e-01
-1.160813571872758021e-01
-9.907083117749146406e-02
-8.026238194130461134e-02
-6.067360296059620683e-02
-4.138966521292358758e-02
-2.351310180728849453e-02
-8.094381271741168948e-03
3.947856258046000821e-03
1.190625578490644987e-02
1.535320115046751033e-02
1.418906117541895995e-02
8.663581221400512566e-03
-6.332290311324428878e-04
-1.281138105232673685e-02
-2.675015197139124501e-02
-4.119115384767588206e-02
-5.484721252473928610e-02
-6.651666944956191596e-02
-7.519147674770945700e-02
-8.014772932817992857e-02
-8.100905049874784769e-02
-7.777617456189009348e-02
-7.081969647505353960e-02
-6.083690321501405984e-02
-4.877752958691733420e-02
-3.574673651174326006e-02
-2.289600254446216843e-02
-1.131349696730032939e-02
-1.924838230760589353e-03
4.586665444664794755e-03
7.833603503719310801e-03
7.747848597090489786e-03
4.572566024640095650e-03
-1.175302275995271373e-03
-8.767308742019613854e-03
-1.734338271341340221e-02
-2.600068936302085687e-02
-3.388232346959973995e-02
-4.025709552340217545e-02
-4.458282599231219723e-02
-4.654739813911326629e-02
-4.608430845031985523e-02
-4.336244748256057324e-02
-3.875292054788534446e-02
-3.277827885368697625e-02
-2.605107246373769558e-02
-1.920899728143032892e-02
-1.285332568418179333e-02
-7.496190249828116325e-03
-3.520903930561564144e-03
-1.157907616212427993e-03
-4.771649022819735020e-04
-1.396054289773407397e-03
-3.700346650306884921e-03
-7.074943599144262185e-03
-1.114071720187309600e-02
-1.549384629627473253e-02
-1.974424232945487523e-02
-2.354988141285960235e-02
-2.664420948954315804e-02
-2.885447611647737332e-02
-3.010994382040119155e-02
-3.044016354731043927e-02
-2.996449915240304018e-02
-2.887460886264311966e-02
-2.741176893405855575e-02
-2.584105163384584070e-02
-2.442462712127579927e-02
-2.339673747710535601e-02
-2.294288680424025340e-02
-2.318527291434108184e-02
-2.417550374489968457e-02
-2.589451899535752388e-02
-2.825874315672924353e-02
-3.113098666214775267e-02
-3.433440386417335732e-02
-3.766777403273030567e-02
-4.092047325864292540e-02
-4.388584818686117051e-02
-4.637232689787315620e-02
-4.821229189770079304e-02
-4.926911295950869851e-02
-4.944261833559765451e-02
-4.867290358562995078e-02
-4.694213685610593156e-02
-4.427409227463544039e-02
-4.073137773294777109e-02
-3.641048485639722387e-02
-3.143481477906534538e-02
-2.594586662927586551e-02
-2.009301858215559178e-02
-1.402281742792330088e-02
-7.869142366359827001e-03
-1.745608810000409683e-03
4.258997691679783371e-03
1.008226741135825888e-02
1.568720285029845396e-02
2.105925512282133538e-02
2.620164546172509823e-02
3.112922360796638310e-02
3.586139029338038242e-02
4.041496859246179740e-02
4.479804666291703485e-02
4.900559097663909069e-02
5.301713923894185720e-02
5.679640279985756490e-02
6.029241763197309978e-02
6.344202256272619966e-02
6.617364805935881111e-02
6.841234904699897146e-02
7.008569628069695467e-02
7.112987004016813053e-02
7.149535380439706045e-02
7.115192611860185479e-02
7.009288043945682833e-02
6.833836732693415739e-02
6.593754503431907554e-02
6.296907875791392384e-02
5.953956409634843239e-02
5.577961530399927481e-02
5.183758432803867167e-02
4.787115599673655297e-02
4.403738715706193019e-02
4.048204555227918888e-02
3.732924981230084649e-02
3.467237496199428171e-02
3.256702379726322816e-02
3.102664006984212630e-02
3.002110076382624726e-02
2.947844586884179607e-02
2.928982426579110343e-02
2.931763038877510663e-02
2.940647701276070947e-02
2.939608939913097851e-02
2.913471009376833454e-02
2.849152088923306847e-02
2.736696969834100102e-02
2.570042608700529030e-02
2.347491951423238965e-02
2.071875617724636132e-02
1.750377059697397208e-02
1.394010478517945795e-02
1.016780073648254623e-02
6.345963850701713538e-03
2.640509092295018068e-03
-7.885813806928487768e-04
-3.799782716756239243e-03
-6.281698149734754599e-03
-8.163085083677884546e-03
-9.420244703402608222e-03
-1.008077698228138086e-02
-1.022299039012039557e-02
-9.970723284226518102e-03
-9.483783528747874447e-03
-8.944584280974776647e-03
-8.541962793839757984e-03
-8.453687829939937615e-03
-8.829632917269097936e-03
-9.777720566558789628e-03
-1.135434723294509451e-02
-1.356018319040602771e-02
-1.634133832096135164e-02
-1.959523361049722578e-02
-2.318022610626999103e-02
-2.692793344870952899e-02
-3.065708036482017729e-02
-3.418753979866431814e-02
-3.735325091733379677e-02
-4.001302907439563405e-02
-4.205889570732107563e-02
-4.342213590728707939e-02
-4.407744020768541993e-02
-4.404511848814901542e-02
-4.339088989291542409e-02
-4.222268828810354924e-02
-4.068439611758148389e-02
-3.894701612091155951e-02
-3.719801085055612910e-02
-3.562929221887509157e-02
-3.442397697461227479e-02
-3.374197367906914269e-02
-3.370490052004154746e-02
-3.438155116856617122e-02
-3.577572554095959090e-02
-3.781840921658896626e-02
-4.036597082078513532e-02
-4.320541760446072743e-02
-4.606700668414143163e-02
-4.864374907625249045e-02
-5.061656100829969862e-02
-5.168302589694165339e-02
-5.158706633599191571e-02
-5.014650589074262643e-02
-4.727564933456893104e-02
-4.300050724366150101e-02
-3.746484058439988885e-02
-3.092563122205399528e-02
-2.373707930813337419e-02
-1.632315727731961652e-02
-9.140232417437776924e-03
-2.632979059842527336e-03
2.811804484153718198e-03
6.908190067220959518e-03
9.505829896464992879e-03
1.061221588571170660e-02
1.039968924283508900e-02
9.195890243599624814e-03
7.457798505144441759e-03
5.730939966234999128e-03
4.596663321638827515e-03
4.611477962875309977e-03
6.243280869010603418e-03
9.810000165009852280e-03
1.542677734726319305e-02
2.296809628342176557e-02
3.205088080399831618e-02
4.204319614697088481e-02
5.210075571287250962e-02
6.123029492594615764e-02
6.837558573262134121e-02
7.251892539212881350e-02
7.278865654900598670e-02
6.856182371348396032e-02
5.955052783680568618e-02
4.586102309182565895e-02
2.801635186110895681e-02
6.936620335463938858e-03
-1.612412077835689850e-02
-3.967965169045675755e-02
-6.214184674012179777e-02
-8.196542271745654862e-02
-9.779149942458181810e-02
-1.085746744153509580e-01
-1.136804253144026999e-01
-1.129432319589852574e-01
-1.066804267536564099e-01
-9.566173037062586371e-02
-8.103895772510544271e-02
-6.424397043837004606e-02
-4.686540673300565452e-02
-3.051606486110719496e-02
-1.670315276915262936e-02
-6.712954115353969575e-03
-1.519703099926134060e-03
-1.725622030588985778e-03
-7.535460379755887228e-03
-1.876497509795310714e-02
-3.487905557217860220e-02
-5.505194772058785713e-02
-7.823958789155263660e-02
-1.032528264949559849e-01
-1.288207688874989931e-01
-1.536359440687825595e-01
-1.763774535554268885e-01
-1.957138786793817808e-01
-2.102932718574119786e-01
-2.187318529675749135e-01
-2.196153531627829114e-01
-2.115269145537099771e-01
-1.931127527728709048e-01
-1.631912033278604124e-01
-1.209025881691256354e-01
-6.588762766012865035e-02
1.527457801246079327e-03
8.016855127554688154e-02
1.679068847938502973e-01
2.616388518632682403e-01
3.573746239366550337e-01
4.504486196820489119e-01
5.358378386538655835e-01
6.085699350262191443e-01
6.641745663779564657e-01
6.991228522497752174e-01
7.111938988715271748e-01
6.997130143180803064e-01
6.656228921397202569e-01
6.113741857511270084e-01
5.406509222196782538e-01
4.579731876493351450e-01
3.682383386448124796e-01
2.762681595807459645e-01
1.864219392751803039e-01
1.023174460706713085e-01
2.667869804569636405e-02
-3.869325161095851784e-02
-9.284844989518639680e-02
-1.355482195878630614e-01
-1.670938870652604324e-01
-1.881569726363876149e-01
-1.996352798141683149e-01
-2.025486624645740363e-01
-1.979777866650498652e-01
-1.870405355191655516e-01
-1.708947072017502344e-01
-1.507527242061268424e-01
-1.278941805717091207e-01
-1.036646914143891651e-01
-7.945376180519983511e-02
-5.664924763664833107e-02
-3.657064716793445580e-02
-2.038750115192475287e-02
-9.032355749285292390e-03
-3.119729190026399035e-03
-2.882873787953821321e-03
-8.138606947641208178e-03
-1.828736222115773247e-02
-3.235151248404621871e-02
-4.905054621092652667e-02
-6.690723914357010749e-02
-8.437495698963634605e-02
-9.997323526924717374e-02
-1.124174365076989202e-01
-1.207289367877799890e-01
-1.243148269649899107e-01
-1.230099387074934936e-01
-1.170782877113580311e-01
-1.071750887555107112e-01
-9.427406246824474034e-02
-7.956778560105348674e-02
-6.435120767456706248e-02
-4.989985959043910513e-02
-3.735445063788025988e-02
-2.762249182320936081e-02
-2.130554772845899558e-02
-1.865802984657499719e-02
-1.958035081246256581e-02
-2.364594100410993827e-02
-3.015831204337493521e-02
-3.823137767395229369e-02
-4.688403891694217784e-02
-5.513899681307801726e-02
-6.211599882759241686e-02
-6.711098728602102326e-02
-6.965444751084731712e-02
-6.954436842378652894e-02
-6.685163293087353908e-02
-6.189841774447252254e-02
-5.521310572110513237e-02
-4.746774676817192007e-02
-3.940564150070513527e-02
-3.176691878751203291e-02
-2.521927885315586315e-02
-2.029987760894760851e-02
-1.737299258566840643e-02
-1.660663512679891318e-02
-1.796946278031730238e-02
-2.124717362104983076e-02
-2.607536665727175351e-02
-3.198418544295067445e-02
-3.844932579140591944e-02
-4.494412347239581940e-02
-5.098801663843893772e-02
-5.618734400320335443e-02
-6.026520699744750131e-02
-6.307821124235915566e-02
-6.461935583488448431e-02
-6.500788889396030834e-02
-6.446821838980590358e-02
-6.330076600574993662e-02
-6.184803489689807976e-02
-6.045927344422422078e-02
-5.945702997989490979e-02
-5.910856248850343553e-02
-5.960437505840560091e-02
-6.104508189825319509e-02
-6.343661162909697282e-02
-6.669289453815824276e-02
-7.064484360729605950e-02
-7.505443542255024747e-02
-7.963264196311861665e-02
-8.405973495124569039e-02
-8.800628797241152879e-02
-9.115330525413531393e-02
-9.321036278028715927e-02
-9.393122621489974344e-02
-9.312676153537263746e-02
-9.067491389059276208e-02
-8.652728898500355870e-02
-8.071180083776247072e-02
-7.333112632351146409e-02
-6.455714205356011259e-02
-5.462179540523581789e-02
-4.380487827745341289e-02
-3.241911692766666353e-02
-2.079313283302389181e-02
-9.253256166379841829e-03
1.894331128222931371e-03
1.237945312445451473e-02
2.198043211744865610e-02
3.053247105293677155e-02
3.793173478184855285e-02
4.413518955861864268e-02
4.915635245077634718e-02
5.305736388785647906e-02
5.593832409122553861e-02
5.792533686671305637e-02
5.915878642360331008e-02
5.978293216395913490e-02
5.993724096251287770e-02
5.974942755083639812e-02
5.933015860571339006e-02
5.876961692731455522e-02
5.813622080665900582e-02
5.747752658014873561e-02
5.682287757575943399e-02
5.618706979150700498e-02
5.557438978755174785e-02
5.498269660211488330e-02
5.440740019294235119e-02
5.384502910128516340e-02
5.329578793616515653e-02
5.276448003468761638e-02
5.225957059263397486e-02
5.179075990997455969e-02
5.136582777684808865e-02
5.098750199441148823e-02
5.065086321538561642e-02
5.034160905757600890e-02
5.003543852480563103e-02
4.969874858369588422e-02
4.929061926113345593e-02
4.876570819788075828e-02
4.807737805116257812e-02
4.718040870628190109e-02
4.603305920240982618e-02
4.459875734447973916e-02
4.284791858253148011e-02
4.076020070238445259e-02
3.832711295696905607e-02
3.555463675227385489e-02
3.246548225850603986e-02
2.910066609255340664e-02
2.552009408539701596e-02
2.180175897376868122e-02
1.803914925281011050e-02
1.433666663981705836e-02
1.080326888450455769e-02
7.544989403658053373e-03
4.657181797693615843e-03
2.217215149888207559e-03
2.780651661804245389e-04
-1.136934912056020153e-03
-2.037853814659124074e-03
-2.469885385011805212e-03
-2.512411216179372131e-03
-2.275058015684283674e-03
-1.890929739122471087e-03
-1.507616538443140586e-03
-1.276677382693797158e-03
-1.342178643149727346e-03
-1.828861470822701341e-03
-2.830764726513723684e-03
-4.401451992407351410e-03
-6.547030536338288575e-03
-9.222798023293593550e-03
-1.233386497731239761e-02
-1.573981389565098921e-02
-1.926343147623241214e-02
-2.270350789650854573e-02
-2.585129457095089456e-02
-2.850941591023176125e-02
-3.051120364573298160e-02
-3.173803988446008417e-02
-3.213256716573406613e-02
-3.170635600875465476e-02
-3.054141899562970441e-02
-2.878556153905598158e-02
-2.664197293303455227e-02
-2.435384583661817648e-02
-2.218525178473640391e-02
-2.039989054653379430e-02
-1.923947144866966497e-02
-1.890329800757478695e-02
-1.953028469554382585e-02
-2.118442080444710163e-02
-2.384473489692465198e-02
-2.740093146871577789e-02
-3.165573971728999347e-02
-3.633445638618335027e-02
-4.110134366576148612e-02
-4.558181448659093249e-02
-4.938892477282416649e-02
-5.215252099515219064e-02
-5.354921707164225775e-02
-5.333106802936185553e-02
-5.135050659856799093e-02
-4.757905656158664676e-02
-4.211761710715389295e-02
-3.519661770011822677e-02
-2.716495467832402699e-02
-1.846734163174429399e-02
-9.610641468461716963e-03
-1.120995070754138290e-03
6.504943695362169764e-03
1.284991390217238294e-02
1.762139767798551193e-02
2.068665827575716376e-02
2.209264470251687262e-02
2.206763211795836899e-02
2.100351028626232242e-02
1.941973574999489305e-02
1.791199410186478103e-02
1.709042406949767834e-02
1.751356205257345588e-02
1.962470691432088854e-02
2.369710491336717018e-02
2.979337698688264147e-02
3.774326434583741285e-02
4.714234069959050144e-02
5.737289192488559397e-02
6.764650160581719973e-02
7.706585966130931331e-02
8.470115625541260740e-02
8.967463548655510430e-02
9.124587250108395775e-02
8.889017006562624501e-02
8.236288134467201205e-02
7.174310975655044664e-02
5.745103658510986033e-02
4.023441173726172160e-02
2.112201154334558684e-02
1.345347609967600944e-03
-1.776577938252449362e-02
-3.490412361544756314e-02
-4.890956775604932139e-02
-5.888373136908495176e-02
-6.428174544348844166e-02
-6.497065312805658244e-02
-6.124743062146845163e-02
-5.381410794957666721e-02
-4.371244458434389579e-02
-3.222532196649555147e-02
-2.075567571998007677e-02
-1.069598986767666959e-02
-3.302129618128424315e-03
4.152884704350656708e-04
-2.292039250428035135e-04
-5.552371601043493143e-03
-1.549778068753979166e-02
-2.966766131969147957e-02
-4.738352119301780796e-02
-6.776436650720166210e-02
-8.980966340282875437e-02
-1.124743069560494579e-01
-1.347247144076746950e-01
-1.555686224581439292e-01
-1.740561361140684216e-01
-1.892556207486978948e-01
-2.002141837288647919e-01
-2.059174246935057129e-01
-2.052656357209511895e-01
-1.970830582072275738e-01
-1.801730969207076538e-01
-1.534257899158028571e-01
-1.159747496009006507e-01
-6.739007641675023863e-02
-7.882906005563045104e-03
6.151168307540660907e-02
1.388114237977220167e-01
2.210597416522618874e-01
3.044221010907259828e-01
3.844168648641547170e-01
4.562704563806566638e-01
5.153636673128585421e-01
5.577149690484280997e-01
5.804317777291215785e-01
5.820564112020627512e-01
5.627438428076526611e-01
5.242341805496590901e-01
4.696202723860062322e-01
4.029513859765950778e-01
3.287461288399700088e-01
2.515015585599558734e-01
1.752769036057926222e-01
1.034040950546930154e-01
3.834388515738712533e-02
-1.832362526666359015e-02
-6.580531286190532958e-02
-1.039383747112574696e-01
-1.330104879245706251e-01
-1.535899397373325370e-01
-1.663888068280757471e-01
-1.721711319097297133e-01
-1.717076985243894405e-01
-1.657706916903435301e-01
-1.551559030381832738e-01
-1.407173560034231663e-01
-1.233991483424277946e-01
-1.042516239215525164e-01
-8.442318261695705428e-02
-6.512431550907396560e-02
-4.756583280970769212e-02
-3.287789391754813995e-02
-2.201984364078396483e-02
-1.569275139962336696e-02
-1.426680720939405012e-02
-1.773430043105964082e-02
-2.569590239933072784e-02
-3.738380613015221399e-02
-5.172069614469732013e-02
-6.740935549595034049e-02
-8.304450466108148632e-02
-9.723632688296346416e-02
-1.087339534462627433e-01
-1.165369258548434317e-01
-1.199834984533981741e-01
-1.188068111311807729e-01
-1.131533711826785416e-01
-1.035624136600581946e-01
-9.090881755331040037e-02
-7.631577720604493242e-02
-6.104616139142168829e-02
-4.638341742767060349e-02
-3.351385260374628583e-02
-2.342184383812342952e-02
-1.680784051964318015e-02
-1.403619930685129358e-02
-1.511646662225785143e-02
-1.971825502649041106e-02
-2.721674642066834737e-02
-3.676326645965230511e-02
-4.737329583541727285e-02
-5.802277059255850356e-02
-6.774285106601493633e-02
-7.570382485771784409e-02
-8.128051272911177016e-02
-8.409413429439266396e-02
-8.402847789193840233e-02
-8.122088986002470867e-02
-7.603083874557120536e-02
-6.899065108955235170e-02
-6.074447365588886427e-02
-5.198241344987475365e-02
-4.337684918198925210e-02
-3.552695212549034087e-02
-2.891572319469870589e-02
-2.388188893407905411e-02
-2.060730740678567985e-02
-1.911924231014255904e-02
-1.930578695127607713e-02
-2.094173560221762598e-02
-2.372143849574076535e-02
-2.729485774616305371e-02
-3.130321606343713925e-02
-3.541114388019914183e-02
-3.933288884819563513e-02
-4.285084140113296081e-02
-4.582533404021893464e-02
-4.819545593504884207e-02
-4.997152924852366063e-02
-5.122078082050024461e-02
-5.204836364517989589e-02
-5.257612623761698245e-02
-5.292149158153278132e-02
-5.317863373910031166e-02
-5.340387878252786380e-02
-5.360685120989025498e-02
-5.374823626825156464e-02
-5.374411370685347467e-02
-5.347583597564239954e-02
-5.280372782954942390e-02
-5.158269978652768595e-02
-4.967808282355898331e-02
-4.698028770263096288e-02
-4.341705356957514805e-02
-3.896211483783396101e-02
-3.363928171998784022e-02
-2.752137085502787128e-02
-2.072413333105957434e-02
-1.339609383814396870e-02
-5.705777018262053746e-03
2.171925361287324607e-03
1.006841274486972027e-02
1.783131829719233896e-02
2.533038747333987706e-02
3.245873841607171961e-02
3.913000950824963020e-02
4.527286456208229337e-02
5.082482251988404420e-02
5.572725544702192280e-02
5.992281386012476840e-02
6.335582754464857969e-02
6.597565891433940233e-02
6.774258226401654037e-02
6.863538599353437297e-02
6.865948605631208568e-02
6.785404160047664446e-02
6.629657676574698955e-02
6.410398052767704580e-02
6.142933364995145640e-02
5.845458449234278153e-02
5.537952789448752355e-02
5.240784026998154821e-02
4.973120090831151252e-02
4.751288632625902397e-02
4.587260572958398730e-02
4.487450590762173674e-02
4.451998441402413298e-02
4.474625866167053490e-02
4.543086544708979657e-02
4.640170058240361550e-02
4.745183476772910081e-02
4.835791905244440914e-02
4.890042890125320674e-02
4.888353905816689160e-02
4.815242409276077051e-02
4.660632219367399909e-02
4.420648915761399289e-02
4.097879600827386559e-02
3.701103513502243536e-02
3.244520563279457148e-02
2.746543485705060794e-02
2.228278010584422431e-02
1.711864033368498683e-02
1.218853149637477706e-02
7.687477376250695382e-03
3.777579474088188505e-03
5.779023463776400416e-04
-1.843171325918047110e-03
-3.472670582792158900e-03
-4.354187939006215480e-03
-4.584891502285526332e-03
-4.308227149833837588e-03
-3.702613967477841328e-03
-2.966854789694495231e-03
-2.303357647029824484e-03
-1.900626345411993157e-03
-1.916779125581496990e-03
-2.465947518141359263e-03
-3.609127199043660195e-03
-5.350377132251837864e-03
-7.638409991396893917e-03
-1.037291610156307331e-02
-1.341461996742965290e-02
-1.659802071623711628e-02
-1.974575758633964617e-02
-2.268337822472638043e-02
-2.525307216111430386e-02
-2.732497617967383219e-02
-2.880513690486102840e-02
-2.963993097842926305e-02
-2.981729909375147036e-02
-2.936532679068293294e-02
-2.834860210157705285e-02
-2.686267311113613165e-02
-2.502703256263510978e-02
-2.297733762218800990e-02
-2.085775206559156714e-02
-1.881410956220400110e-02
-1.698806998834137549e-02
-1.551192449471122670e-02
-1.450357294109103079e-02
-1.406147789505629575e-02
-1.425974118791223377e-02
-1.514350947972387118e-02
-1.672472256274812330e-02
-1.897809756217530563e-02
-2.183743768156512499e-02
-2.519276950523036129e-02
-2.888912373339064255e-02
-3.272776897488727244e-02
-3.647049679864017291e-02
-3.984742228108606454e-02
-4.256878874373865029e-02
-4.434117087577899019e-02
-4.488793977823699044e-02
-4.397291478637246898e-02
-4.142512897137323735e-02
-3.716195412770237350e-02
-3.120764817997420670e-02
-2.370463679277834412e-02
-1.491534392831642131e-02
-5.213069005101461650e-03
4.938662017607342580e-03
1.501760717420563829e-02
2.448305674445025448e-02
3.282130997703361364e-02
3.959197623550855805e-02
4.447052440257823203e-02
4.728289758000243925e-02
4.802863373206851805e-02
4.688965156190035011e-02
4.422281065205267703e-02
4.053568296503889945e-02
3.644659365756437730e-02
3.263159819087332880e-02
2.976235500883839258e-02
2.843973217872577952e-02
2.912857734489640582e-02
3.209953500137666116e-02
3.738405874776033755e-02
4.474852567608356146e-02
5.369225558751876404e-02
6.347216820075785026e-02
7.315406388632421375e-02
8.168760295815111205e-02
8.799941529449145650e-02
9.109657913776614269e-02
9.017102947638250265e-02
8.469442006789373867e-02
7.449277484370524227e-02
5.979115385235125868e-02
4.122075545438350086e-02
1.978450078060056683e-02
-3.218034699270400090e-03
-2.630020638763047591e-02
-4.792157955769296707e-02
-6.663083174002421005e-02
-8.120281052029060254e-02
-9.075483158566496900e-02
-9.482975875810445432e-02
-9.343748720580385969e-02
-8.705150771043965174e-02
-7.656236941568866916e-02
-6.319427692084039760e-02
-4.839434026392988586e-02
-3.370610995642581154e-02
-2.064003865012833949e-02
-1.055334512298006233e-02
-4.550257955474978910e-03
-3.410795397269766882e-03
-7.552465094002758228e-03
-1.702520328552442619e-02
-3.153614623596423527e-02
-5.049773685709169069e-02
-7.309026697420356600e-02
-9.832844221098563375e-02
-1.251214674183687703e-01
-1.523180108537033339e-01
-1.787312186281499460e-01
-2.031440112914040252e-01
-2.243000424173844654e-01
-2.408898278524862768e-01
-2.515440066125926299e-01
-2.548462737775150089e-01
-2.493772022778862896e-01
-2.337968285835847759e-01
-2.069683396082795390e-01
-1.681174928555307646e-01
-1.170131601986796055e-01
-5.414519334561185282e-02
1.913092456152595822e-02
1.005151291976900119e-01
1.867780537737161461e-01
2.738895156608640580e-01
3.572651942135558478e-01
4.321193338389355265e-01
4.938925233281706850e-01
5.387055973912655560e-01
5.637773440017687099e-01
5.677398120026430073e-01
5.507945222119803308e-01
5.146765337395211581e-01
4.624274398730219837e-01
3.980152406933976095e-01
3.258686553323681956e-01
2.504067779626416579e-01
1.756380804085182490e-01
1.048790382828166667e-01
4.061126563171982284e-02
-1.553285297565343281e-02
-6.268569652773936518e-02
-1.005993666891158433e-01
-1.294777369342262063e-01
-1.498167684746359585e-01
-1.622748916418372822e-01
-1.675850449303181722e-01
-1.665102376108889837e-01
-1.598362879960040228e-01
-1.483896375512574195e-01
-1.330654792850850254e-01
-1.148518657531237830e-01
-9.483832875434716758e-02
-7.420183998406756909e-02
-5.416770018630756578e-02
-3.594751691965164531e-02
-2.066046750630451401e-02
-9.247210460596871906e-03
-2.387628943650854652e-03
-4.336707528139471801e-04
-3.366922139604822117e-03
-1.078766583063348050e-02
-2.193858920980162885e-02
-3.576249729823288703e-02
-5.098969785221088569e-02
-6.624741184135291006e-02
-8.018087146925897968e-02
-9.157407344833523588e-02
-9.945785920952759929e-02
-1.031942605922691325e-01
-1.025286770262651692e-01
-9.760497138199761280e-02
-8.894245957406624048e-02
-7.737760971407636745e-02
-6.397678863142564065e-02
-4.992933894508450043e-02
-3.643228523108393846e-02
-2.457867536459371061e-02
-1.526075272586158160e-02
-9.096957592041488017e-03
-6.388665169441976044e-03
-7.109202883153920016e-03
-1.092445778692180403e-02
-1.724141232712667060e-02
-2.527834672155213069e-02
-3.414854060530017610e-02
-4.294847587499578401e-02
-5.084187457070604710e-02
-5.713208526983692970e-02
-6.131692497314467083e-02
-6.312189096940665212e-02
-6.250974853361881967e-02
-5.966692497601627787e-02
-5.496964512441221418e-02
-4.893479713508153139e-02
-4.216164983230599739e-02
-3.527069683024849911e-02
-2.884542386601254838e-02
-2.338203387327114635e-02
-1.925117403341178313e-02
-1.667438458694336934e-02
-1.571636790127978189e-02
-1.629251922053842616e-02
-1.818976681129996775e-02
-2.109775787577730655e-02
-2.464673472771355955e-02
-2.844801442771607847e-02
-3.213286611836779771e-02
-3.538588389519162214e-02
-3.796976851454073043e-02
-3.973972509167458811e-02
-4.064717182268792750e-02
-4.073367915631437297e-02
-4.011674629044414964e-02
-3.896931254020927216e-02
-3.749513899449533061e-02
-3.590254446838533897e-02
-3.437926746373679010e-02
-3.307112637384554410e-02
-3.206653473374199148e-02
-3.138803644174931184e-02
-3.099123225610178611e-02
-3.077092079130186453e-02
-3.057382126516544618e-02
-3.021665369789378053e-02
-2.950758244051135404e-02
-2.826832480998481278e-02
-2.635398137904501614e-02
-2.366808410310106137e-02
-2.017133083605718302e-02
-1.588357067452758620e-02
-1.087947517374648898e-02
-5.278911656915685757e-03
7.664925216751827808e-04
7.088611503623637455e-03
1.351758541996045393e-02
1.989392972597969766e-02
2.607662612230415844e-02
3.194696497989649164e-02
3.740886423261965965e-02
4.238681355125759054e-02
4.682255093646074673e-02
5.067141519112551562e-02
5.389923294110786356e-02
5.648046592148991962e-02
5.839798402269967548e-02
5.964430880546435498e-02
6.022373776832221082e-02
6.015461228888435707e-02
5.947116317850792422e-02
5.822469007199598812e-02
5.648403231141704839e-02
5.433522279467589700e-02
5.188000869088224554e-02
4.923285818547457060e-02
4.651631757420179869e-02
4.385500382988213874e-02
4.136878079948030917e-02
3.916557607309051336e-02
3.733402190287607447e-02
3.593603466867006935e-02
3.499979683752796333e-02
3.451418176698217710e-02
3.442600767274758833e-02
3.464128757399947967e-02
3.503092799837956295e-02
3.544049990958092478e-02
3.570310827159572931e-02
3.565410858266879202e-02
3.514631604074458515e-02
3.406427347615573198e-02
3.233612187592641019e-02
2.994180180818434289e-02
2.691672688328139440e-02
2.335053722489791039e-02
1.938088036651769430e-02
1.518238822626605256e-02
1.095132973194939963e-02
6.887034055580026903e-03
3.172049633542894931e-03
-4.628263837788693102e-05
-2.670111868239344322e-03
-4.659249022207989643e-03
-6.032488961239923508e-03
-6.862476287063157265e-03
-7.265212651937386079e-03
-7.385621940930398033e-03
-7.380784088964920109e-03
-7.402701441173581420e-03
-7.582671157132570006e-03
-8.019210021549788570e-03
-8.770863683085189377e-03
-9.854316861219680757e-03
-1.124738489178636613e-02
-1.289598293768920434e-02
-1.472400586363675767e-02
-1.664495287511019717e-02
-1.857391557307419561e-02
-2.043832106600976251e-02
-2.218586420399731862e-02
-2.378853449853191027e-02
-2.524242065683657277e-02
-2.656376815947314451e-02
-2.778233879465319411e-02
-2.893340317915690796e-02
-3.004974384344891170e-02
-3.115496153826738390e-02
-3.225920460503989284e-02
-3.335809040152523663e-02
-3.443495512421629323e-02
-3.546575812830335406e-02
-3.642529891085616311e-02
-3.729318860701491545e-02
-3.805833712603345909e-02
-3.872135633235135321e-02
-3.929486201906415288e-02
-3.980195648552400933e-02
-4.027326560318927884e-02
-4.074296728826790059e-02
-4.124430376869328563e-02
-4.180499081161262453e-02
-4.244265415368614347e-02
-4.316007965328455542e-02
-4.393997168908786444e-02
-4.473930901938286131e-02
-4.548414519333038308e-02
-4.606635874070713621e-02
-4.634399577573602991e-02
-4.614642244862160458e-02
-4.528480012085145390e-02
-4.356768437216332335e-02
-4.082084889404341554e-02
-3.690962662792263149e-02
-3.176119590910245205e-02
-2.538364077332383451e-02
-1.787864097905633720e-02
-9.445414987834244158e-03
-3.748188354596726501e-04
8.966178728795709540e-03
1.815849176824119171e-02
2.676172067094818863e-02
3.434968292837525805e-02
4.054800392486485050e-02
4.507048774802402402e-02
4.775068823106648486e-02
4.856524975283760259e-02
4.764605900632773450e-02
4.527889276290783527e-02
4.188706008149252480e-02
3.799964993541922464e-02
3.420554846884053812e-02
3.109634630169030856e-02
2.920325463546638578e-02
2.893462549775729920e-02
3.052119784794232737e-02
3.397572455727387863e-02
3.907245668652700732e-02
4.535034175853343286e-02
5.214174422589555602e-02
5.862595241706772264e-02
6.390388933499209501e-02
6.708771381459172067e-02
6.739672719296736780e-02
6.424939000798411681e-02
5.734057490061664208e-02
4.669386423035844225e-02
3.268106347938781742e-02
1.600497842658521463e-02
-2.353821203121969630e-03
-2.122099214041528459e-02
-3.933426243254181665e-02
-5.545990484027690792e-02
-6.850773003989285570e-02
-7.763298782965191713e-02
-8.231521017500734172e-02
-8.240647921601709780e-02
-7.814458531495113713e-02
-7.012997293125061704e-02
-5.926914204802083419e-02
-4.669082517788875064e-02
-3.364408843132293825e-02
-2.138900451369990519e-02
-1.109069690779102002e-02
-3.726663090695581104e-03
-1.563214042477056864e-05
-3.738894401714709659e-04
-4.901997469890173598e-03
-1.340126697725027571e-02
-2.541559938509016514e-02
-4.029108172407608324e-02
-5.724356267897126593e-02
-7.542368105814598045e-02
-9.396952805767339045e-02
-1.120392815066948988e-01
-1.288196786253595905e-01
-1.435108855799847594e-01
-1.552936734677688446e-01
-1.632898983689148320e-01
-1.665309232222731417e-01
-1.639497887037774382e-01
-1.544111163185084568e-01
-1.367879117826710234e-01
-1.100870068868966545e-01
-7.361552591451939187e-02
-2.717058670215016791e-02
2.877497591176655933e-02
9.292473485319428794e-02
1.630842020970672268e-01
2.361902632312009309e-01
3.084627675767998012e-01
3.756784867879575662e-01
4.335465365726096643e-01
4.781433910122211972e-01
5.063484566011058341e-01
5.162121975567375287e-01
5.071924401643892466e-01
4.802130561544752929e-01
4.375307533533837612e-01
3.824332827123012590e-01
3.188257737892531418e-01
2.507811907743415225e-01
1.821307271130833683e-01
1.161520655638823146e-01
5.538535532183117005e-02
1.577821310059790427e-03
-4.426467399976405370e-02
-8.175373086214049456e-02
-1.109601875282261729e-01
-1.322555479847811466e-01
-1.461783336172540193e-01
-1.533399318598307470e-01
-1.543740833142950020e-01
-1.499255976666641066e-01
-1.406679962260072025e-01
-1.273365618377939323e-01
-1.107624321596392403e-01
-9.189468509813225605e-02
-7.180065321709078185e-02
-5.163947402707508294e-02
-3.260920886955884224e-02
-1.587269041282793336e-02
-2.470862948485891275e-03
6.765484879848543409e-03
1.129402865947046197e-02
1.091848202626652387e-02
5.816874606415889382e-03
-3.464567594043510557e-03
-1.605276352846654597e-02
-3.082075168408895949e-02
-4.648496341210500704e-02
-6.171698728727384453e-02
-7.525892797634947673e-02
-8.603145013725771451e-02
-9.322436273779663440e-02
-9.636114564000597404e-02
-9.533131279459050589e-02
-9.038790952344133434e-02
-8.211130207290157079e-02
-7.134401504848561504e-02
-5.910411773997534257e-02
-4.648633663945014871e-02
-3.456072485674860362e-02
-2.427844196087700079e-02
-1.639305882193978214e-02
-1.140390113716011067e-02
-9.525459115445944480e-03
-1.068410042805556515e-02
-1.454062599058317251e-02
-2.053500000730626440e-02
-2.794804895122296462e-02
-3.597397066637594842e-02
-4.379696725334186747e-02
-5.066520048889275318e-02
-5.595567713086724293e-02
-5.922465057523251808e-02
-6.023955310091524962e-02
-5.899014894086510030e-02
-5.567839347247846571e-02
-5.068838364120314965e-02
-4.453979677589997577e-02
-3.783017768628343935e-02
-3.117289331405251329e-02
-2.513797836555661802e-02
-2.020222467912788367e-02
-1.671305158874478169e-02
-1.486856888451501546e-02
-1.471428983485398301e-02
-1.615528544627109486e-02
-1.898111525310827719e-02
-2.289962373351012159e-02
-2.757484634262677425e-02
-3.266413419485370007e-02
-3.785035607902931254e-02
-4.286644850739759760e-02
-4.751110357691989972e-02
-5.165553204296841061e-02
-5.524193617734335371e-02
-5.827481919237573194e-02
-6.080678914031639737e-02
-6.292106562245652901e-02
-6.471319523619356584e-02
-6.627428696042542144e-02
-6.767746476054767313e-02
-6.896852396722730205e-02
-7.016118969317511334e-02
-7.123683902309407845e-02
-7.214793901969010492e-02
-7.282391557463552267e-02
-7.317804514770220869e-02
-7.311438234013561965e-02
-7.253442406332011316e-02
-7.134371059013108751e-02
-6.945857734118540683e-02
-6.681283183018568717e-02
-6.336358518446402743e-02
-5.909526620109714634e-02
-5.402120140237193224e-02
-4.818284433251093790e-02
-4.164731194121570890e-02
-3.450400460344080211e-02
-2.686082591672667164e-02
-1.884025386858462214e-02
-1.057550967652787222e-02
-2.207190780285001042e-03
6.119366729391617632e-03
1.425617604288856310e-02
2.205483177217029689e-02
2.936974317466550799e-02
3.606285617513760311e-02
4.200966466774957997e-02
4.710573360000935850e-02
5.127279973444193173e-02
5.446377669036062130e-02
5.666638878067065122e-02
5.790537989747307490e-02
5.824320907804025893e-02
5.777902853132445282e-02
5.664573038203571387e-02
5.500494499138214310e-02
5.303994333211833889e-02
5.094637359692791301e-02
4.892076660000868604e-02
4.714698793253521703e-02
4.578139269511274922e-02
4.493818511445921149e-02
4.467702687816049734e-02
4.499494580832774648e-02
4.582404130843123480e-02
4.703563020967901909e-02
4.845062706659183926e-02
4.985521475136694969e-02
5.102019614430369776e-02
5.172188522050918946e-02
5.176222691592063940e-02
5.098618073563496167e-02
4.929510189794855668e-02
4.665552786070825686e-02
4.310311558184221070e-02
3.874146203929992871e-02
3.373550375504333343e-02
2.829952677247482562e-02
2.268058086828783626e-02
1.713890474076615322e-02
1.192738316016633826e-02
7.271952593807751164e-03
3.354513796288982608e-03
2.996291608395873496e-04
-1.833878873965050227e-03
-3.055593888542984526e-03
-3.440194303185539759e-03
-3.118735404668782074e-03
-2.265826188604186386e-03
-1.084364401965381974e-03
2.106149850226168851e-04
1.407848739490652479e-03
2.314798924881344977e-03
2.771062175189187293e-03
2.659462803963813515e-03
1.913830372507224764e-03
5.225052546645736484e-04
-1.472946426273546994e-03
-3.983629865093402111e-03
-6.882974218311826986e-03
-1.001884689910187420e-02
-1.322668032129986626e-02
-1.634222256633405257e-02
-1.921277165002432952e-02
-2.170621166704994609e-02
-2.371777521301710046e-02
-2.517496171601768529e-02
-2.604113673097310788e-02
-2.631794119204219906e-02
-2.604604441727409458e-02
-2.530345953493390310e-02
-2.420089388272600450e-02
-2.287429733864423942e-02
-2.147546524576418592e-02
-2.016185359875138916e-02
-1.908658838227808574e-02
-1.838927007332466501e-02
-1.818794265418824385e-02
-1.857254991197115901e-02
-1.960006029764566060e-02
-2.129107150146525296e-02
-2.362735319813857870e-02
-2.654977059949731322e-02
-2.995640425845189081e-02
-3.370123449126982695e-02
-3.759422013635907445e-02
-4.140380418680172925e-02
-4.486283336630003671e-02
-4.767870693222089895e-02
-4.954833099758207404e-02
-5.017803067780671200e-02
-4.930777319794529823e-02
-4.673788368424827699e-02
-4.235524728389947202e-02
-3.615532496726389655e-02
-2.825649000916727327e-02
-1.890409595143074939e-02
-8.462917961620297636e-03
2.602157272803856669e-03
1.375617274307477933e-02
2.443275101493555534e-02
3.407820682643447618e-02
4.219724831280688426e-02
4.839619814558850097e-02
5.242000278614972197e-02
5.417988868691930859e-02
5.376906417526700066e-02
5.146430473615767887e-02
4.771183414497907893e-02
4.309690940454180552e-02
3.829800529769855633e-02
3.402826140403225619e-02
3.096853495804059719e-02
2.969771049395178442e-02
3.062676652365811658e-02
3.394348225429770494e-02
3.957447073428878304e-02
4.717023456850311103e-02
5.611701580693889690e-02
6.557650138903320380e-02
7.455144580416633859e-02
8.197254457387798121e-02
8.679965130926256545e-02
8.812851710185309884e-02
8.529255057141715834e-02
7.794803087586796297e-02
6.613151707117628786e-02
5.028050685377671858e-02
3.121265900725891940e-02
1.006426257184092621e-02
-1.180614382006789365e-02
-3.293905348202230687e-02
-5.190773367842604902e-02
-6.745089853366673105e-02
-7.859088553622373130e-02
-8.472523319717856216e-02
-8.568222028929656231e-02
-8.173477793800382196e-02
-7.357172272875309171e-02
-6.222986033692409769e-02
-4.899464118470311935e-02
-3.528027652925602720e-02
-2.250219733692326862e-02
-1.195524791325081049e-02
-4.709964534004962289e-03
-1.536717909857182596e-03
-2.863645028004152548e-03
-8.769738391856130022e-03
-1.900997558624978323e-02
-3.306564213461102297e-02
-5.021041395244668637e-02
-6.958142761653413055e-02
-9.024446659835233531e-02
-1.112436340451750105e-01
-1.316287420151029675e-01
-1.504581759986542422e-01
-1.667805429134516237e-01
-1.796037723659396346e-01
-1.878643830087255440e-01
-1.904116491017522617e-01
-1.860210486905366223e-01
-1.734484657535100283e-01
-1.515311132196086319e-01
-1.193332647283489867e-01
-7.632537363426031285e-02
-2.257538360751584761e-02
4.107718616838887393e-02
1.128984559133141274e-01
1.902220508071989225e-01
2.695218489581233667e-01
3.466085724501581922e-01
4.169451275839225479e-01
4.760548713636347795e-01
5.199764596777316505e-01
5.457026883320723609e-01
5.515338159934721762e-01
5.372826580379470585e-01
5.042906491265112257e-01
4.552478586783904602e-01
3.938478635470591405e-01
3.243401733060587433e-01
2.510593761531706991e-01
1.780070955510823782e-01
1.085427990713945245e-01
4.521029233538020886e-02
-1.030246445839819169e-02
-5.709480083559731467e-02
-9.491274976451577472e-02
-1.239755835160227249e-01
-1.448039181381432228e-01
-1.580750149674162441e-01
-1.645204794916838575e-01
-1.648712313030643584e-01
-1.598455497248222335e-01
-1.501690742717348426e-01
-1.366115505496370564e-01
-1.200242184328005335e-01
-1.013638484696743891e-01
-8.169372036519664815e-02
-6.215710921360759200e-02
-4.392406106329604931e-02
-2.811682452148453470e-02
-1.572297752571749641e-02
-7.507737531259967012e-03
-3.937759587444078502e-03
-5.127617957298824525e-03
-1.081726042083153150e-02
-2.038466258530408082e-02
-3.289357516237070844e-02
-4.717234172543038895e-02
-6.191655116974834061e-02
-7.580578024258879943e-02
-8.762291889128551170e-02
-9.636386244941261281e-02
-1.013261359893876390e-01
-1.021674121287166059e-01
-9.892844752149992926e-02
-9.201893069904790168e-02
-8.216849144037108310e-02
-7.034840130653668977e-02
-5.767222443649044905e-02
-4.528573820348036350e-02
-3.425754169718092657e-02
-2.548153451677342973e-02
-1.960072473515694913e-02
-1.695893157168382182e-02
-1.758358029152307100e-02
-2.119957482368706181e-02
-2.727140149269355329e-02
-3.506811032577653031e-02
-4.374368562290059659e-02
-5.242386051074288122e-02
-6.029005407441442865e-02
-6.665203872222702497e-02
-7.100299921839586803e-02
-7.305323933356022703e-02
-7.274127194966759080e-02
-7.022307816561706995e-02
-6.584204042822089376e-02
-6.008362534428476898e-02
-5.352020799742537860e-02
-4.675211910913215640e-02
-4.035082004932169508e-02
-3.480925290183459198e-02
-3.050328278727723608e-02
-2.766696748395403027e-02
-2.638309041993244786e-02
-2.658888476578280535e-02
-2.809527322818214379e-02
-3.061656793206349314e-02
-3.380674084167548110e-02
-3.729818978134188945e-02
-4.073921661951215856e-02
-4.382694595577557584e-02
-4.633302789659582421e-02
-4.812022858321601815e-02
-4.914897283583413712e-02
-4.947400762368195370e-02
-4.923239218580860443e-02
-4.862472439110765432e-02
-4.789177511133441145e-02
-4.728867337886050182e-02
-4.705873082219955150e-02
-4.740904918663679801e-02
-4.849007770402311013e-02
-5.038096711367956448e-02
-5.308176064774300373e-02
-5.651241625251288148e-02
-6.051783216224176920e-02
-6.487773709754196538e-02
-6.932040630119351565e-02
-7.353932638304416791e-02
-7.721189685986443174e-02
-8.001907703253674509e-02
-8.166481450859849889e-02
-8.189425264047892061e-02
-8.050995412663902728e-02
-7.738545418503861573e-02
-7.247532537930315155e-02
-6.582079859709652481e-02
-5.755008028144911747e-02
-4.787290437571922741e-02
-3.706943509458737740e-02
-2.547420555001100873e-02
-1.345621928242057841e-02
-1.396662869488529690e-03
1.033404227876791315e-02
2.139788664294967058e-02
3.150766410876607027e-02
4.044062921679364431e-02
4.804681755034850843e-02
5.425229500897274515e-02
5.905801982107816706e-02
6.253487313115099755e-02
6.481507426205099232e-02
6.608011147118209028e-02
6.654567911969042071e-02
6.644469679815132035e-02
6.600988208729241524e-02
6.545731148273420397e-02
6.497206522661963524e-02
6.469675369197344650e-02
6.472361709182354594e-02
6.509079867680656051e-02
6.578309064616807977e-02
6.673694862015722151e-02
6.784907291650052463e-02
6.898759008866936493e-02
7.000491034092706788e-02
7.075151483526120888e-02
7.108994275445881805e-02
7.090797421302150183e-02
7.012965477087934607e-02
6.872274720733037578e-02
6.670160409477983443e-02
6.412517673616975611e-02
6.109057391700306594e-02
5.772301153636330562e-02
5.416318980197235011e-02
5.055333092665123540e-02
4.702340708512234291e-02
4.367928083579292187e-02
4.059427640470497645e-02
3.780504994401531760e-02
3.531179018941993375e-02
3.308212082724118486e-02
3.105779637668593107e-02
2.916330728640120773e-02
2.731557731820780099e-02
2.543385881135068471e-02
2.344878101673089632e-02
2.130953313636127500e-02
1.898851282361729842e-02
1.648331265331876017e-02
1.381635207493614459e-02
1.103257431981435888e-02
8.195465890521946850e-03
5.381495224242555109e-03
2.673145651575697945e-03
1.510134767331861028e-04
-2.114271054358990432e-03
-4.069444480819361942e-03
-5.684547050840149662e-03
-6.956709860506615772e-03
-7.911191179829829556e-03
-8.599257682128130797e-03
-9.092961721003711695e-03
-9.477528868699930387e-03
-9.842637954789734689e-03
-1.027400620039906065e-02
-1.084630468717617813e-02
-1.161780089526606718e-02
-1.262667283761104153e-02
-1.388887229948188029e-02
-1.539757270314318083e-02
-1.712429963537095978e-02
-1.902166865556190190e-02
-2.102737560785220006e-02
-2.306891645178765771e-02
-2.506855797974183453e-02
-2.694826321148746651e-02
-2.863443435400481185e-02
-3.006237079345500107e-02
-3.118028720524826380e-02
-3.195273034813600477e-02
-3.236336061033540101e-02
-3.241723385120370837e-02
-3.214270905107632914e-02
-3.159281958825982395e-02
-3.084556136499067014e-02
-3.000237564110064259e-02
-2.918428333422007359e-02
-2.852551034380731987e-02
-2.816473903885063912e-02
-2.823422249220980396e-02
-2.884708995659079900e-02
-3.008347002051173225e-02
-3.197655419710190849e-02
-3.450021693943836065e-02
-3.756006154574481615e-02
-4.098963419547027587e-02
-4.455308668798937943e-02
-4.795497202896950584e-02
-5.085727620904176294e-02
-5.290316912909798219e-02
-5.374614850160011614e-02
-5.308226836759832867e-02
-5.068227005209693936e-02
-4.642003578712405876e-02
-4.029402323369427052e-02
-3.243905077239678247e-02
-2.312668618688801248e-02
-1.275335747637040829e-02
-1.816177888062375789e-03
9.122471673213478072e-03
1.947921099975263859e-02
2.869894007750638243e-02
3.630427883450559889e-02
4.194018779257950580e-02
4.540946733062833918e-02
4.669581809503416114e-02
4.597203062902732729e-02
4.359167619531381654e-02
4.006368415394986893e-02
3.601058594143938252e-02
3.211284710478308491e-02
2.904329661798717155e-02
2.739696017602435973e-02
2.762254134780484094e-02
2.996239353654162052e-02
3.440801456458844609e-02
4.067760258256997163e-02
4.822070029721536866e-02
5.625232438943436608e-02
6.381558038296464286e-02
6.986828737272066103e-02
7.338617565322505532e-02
7.347295174352705405e-02
6.946588767781999851e-02
6.102474486322700953e-02
4.819234675283949609e-02
3.141756634461205511e-02
1.153590952454539020e-02
-1.029160211793206381e-02
-3.267522830872393591e-02
-5.411886817606095801e-02
-7.315533462362272532e-02
-8.848087314151620308e-02
-9.907559861481901597e-02
-1.042981686232459793e-01
-1.039457969743284027e-01
-9.827427304482155845e-02
-8.797652791058707678e-02
-7.412211965554657556e-02
-5.806357969185363399e-02
-4.131867409340253539e-02
-2.544004849873765517e-02
-1.188515332017572868e-02
-1.899452956003994109e-03
3.575590402630390852e-03
3.961446972515547671e-03
-9.355111402882254623e-04
-1.093798677668422759e-02
-2.554218679210923382e-02
-4.398373275848233011e-02
-6.531389048715097179e-02
-8.847420149666815337e-02
-1.123584757513275967e-01
-1.358537779350249552e-01
-1.578563803529424991e-01
-1.772640660538288004e-01
-1.929517278196108410e-01
-2.037419742915165255e-01
-2.083855890797365051e-01
-2.055674893297587957e-01
-1.939517683239518897e-01
-1.722742384685106154e-01
-1.394828634514627408e-01
-9.491653151576825986e-02
-3.850235686745637209e-02
2.905707680546480709e-02
1.061406425491131789e-01
1.901445168619732284e-01
2.775261587561048682e-01
3.639736032638366536e-01
4.446998476863565641e-01
5.148416348969120371e-01
5.699213674607637170e-01
6.063137493920967014e-01
6.216491846483136463e-01
6.150880076482865277e-01
5.874155579917410552e-01
5.409367394696295017e-01
4.791847772037921560e-01
4.064939973168953391e-01
3.275111313675387881e-01
2.467266015850831662e-01
1.680948037500744063e-01
9.478572566829913948e-02
2.907874652999954679e-02
-2.761770384178241500e-02
-7.465432872638702588e-02
-1.119772383214133749e-01
-1.399503083040581908e-01
-1.591938040532313303e-01
-1.704590951926188702e-01
-1.745485910990481615e-01
-1.722803992303510723e-01
-1.644895161072883472e-01
-1.520521974824467493e-01
-1.359179161996742491e-01
-1.171340745139103356e-01
-9.685192539935788547e-02
-7.630699190546419430e-02
-5.677254406718884594e-02
-3.948959477231808735e-02
-2.558098608928918716e-02
-1.596014679159324379e-02
-1.124662321648720043e-02
-1.170020486004608173e-02
-1.718340649139474263e-02
-2.715864952746580019e-02
-4.072237718407251128e-02
-5.667421445718656692e-02
-7.361556918533326832e-02
-9.006891480804601890e-02
-1.046065469473868303e-01
-1.159762115128031290e-01
-1.232110491910039518e-01
-1.257129083899112543e-01
-1.233009832327376931e-01
-1.162214228311967967e-01
-1.051174936052139963e-01
-9.096367107780084504e-02
-7.497047514385907219e-02
-5.846972791354940191e-02
-4.279183967683594658e-02
-2.914730666698703287e-02
-1.852366892522078201e-02
-1.160697089252601955e-02
-8.733830130923381230e-03
-9.877083358875576868e-03
-1.466491265177835568e-02
-2.243039558185361271e-02
-3.228565913861797254e-02
-4.321256168586162794e-02
-5.416047873559259873e-02
-6.414155251313891082e-02
-7.231463635704735160e-02
-7.805087949222619392e-02
-8.097611197815951511e-02
-8.098758071036193940e-02
-7.824499860074357604e-02
-7.313826773789050550e-02
-6.623646362999366377e-02
-5.822433725898995549e-02
-4.983333637424777751e-02
-4.177392340743782406e-02
-3.467508480275471872e-02
-2.903576151039932718e-02
-2.519162513572384410e-02
-2.329909643223171400e-02
-2.333672218185448011e-02
-2.512222030774299841e-02
-2.834205887408819402e-02
-3.258961656016592934e-02
-3.740776079681520927e-02
-4.233186873216587820e-02
-4.692970966467552296e-02
-5.083514509326858555e-02
-5.377335750663236880e-02
-5.557633371498230113e-02
-5.618841272486727045e-02
-5.566252102641039423e-02
-5.414811585690060269e-02
-5.187205560044169661e-02
-4.911396542889737149e-02
-4.617829134621773135e-02
-4.336587420142942739e-02
-4.094806186379429391e-02
-3.914585036543213881e-02
-3.811547723590141823e-02
-3.794073867497840813e-02
-3.863146158370650562e-02
-4.012715352032011906e-02
-4.230475998264904280e-02
-4.498948040369199486e-02
-4.796761505867633280e-02
-5.100048286266314901e-02
-5.383865527420797492e-02
-5.623600130966791011e-02
-5.796309968690993575e-02
-5.881938770023795171e-02
-5.864324171869919611e-02
-5.731936277505372823e-02
-5.478341387492610681e-02
-5.102442793762063111e-02
-4.608558749819596789e-02
-4.006350208496312071e-02
-3.310551701978009520e-02
-2.540438816864046268e-02
-1.718998226182527622e-02
-8.718243041220652412e-03
-2.581448438565558945e-04
7.922429590300983371e-03
1.557094765011102222e-02
2.246374905739495498e-02
2.841799645637532734e-02
3.330122749003516791e-02
3.703774608515733591e-02
3.961131362194064698e-02
4.106398539813560511e-02
4.149133112331822304e-02
4.103451278829711724e-02
3.986979461113648870e-02
3.819618928006615621e-02
3.622214519584335268e-02
3.415231735861970486e-02
3.217539756308993026e-02
3.045368003905457588e-02
2.911462629642946887e-02
2.824439994576827262e-02
2.788333989911265243e-02
2.802355878229187414e-02
2.860904218661833309e-02
2.953860148288656173e-02
3.067184224648258906e-02
3.183813717441288937e-02
3.284853685702851522e-02
3.351049985712231671e-02
3.364505379577009681e-02
3.310542035575206321e-02
3.179542940595106448e-02
2.968555655792781689e-02
2.682437905050849558e-02
2.334361062206335991e-02
1.945542757869059280e-02
1.544139078649983676e-02
1.163296226618795726e-02
8.384567562796596540e-03
6.041371166814052396e-03
4.905111748373519598e-03
5.201989511892851636e-03
7.056358408765561752e-03
1.047297810282418751e-02
1.532938639281777871e-02
2.137908492181320175e-02
2.826573725478949417e-02
3.554808750701751729e-02
4.273446515450204930e-02
4.932456840004659226e-02
5.485508413470678579e-02
5.894498360305486240e-02
6.133611357851229129e-02
6.192480155405774567e-02
6.078046273747762795e-02
5.814778766194830806e-02
5.443035678778215813e-02
5.015560128403648288e-02
4.592351857457563358e-02
4.234377210432074823e-02
3.996729770297891005e-02
3.921934336333429694e-02
4.034123293956307088e-02
4.334798121854793740e-02
4.800772315185668215e-02
5.384652943575495010e-02
6.017909707030882904e-02
6.616293013920165889e-02
7.087144603992717729e-02
7.337982694494105118e-02
7.285612356731688277e-02
6.864914964520239804e-02
6.036441406274448140e-02
4.792005721732084389e-02
3.157654996570065375e-02
1.193648064556102062e-02
-1.008641661695336422e-02
-3.332720202993388892e-02
-5.645454147348616392e-02
-7.807416648690870820e-02
-9.684272392549131414e-02
-1.115820741771149371e-01
-1.213832807835015792e-01
-1.256899862006161939e-01
-1.243526747676232391e-01
-1.176482360271504934e-01
-1.062627355938662310e-01
-9.123880320673971589e-02
-7.389225018179701454e-02
-5.570541392767702771e-02
-3.820721143547711751e-02
-2.285154645520576233e-02
-1.090600320874990370e-02
-3.361413736399004870e-03
-8.701300075859841332e-04
-3.717211481766291570e-03
-1.182479830514532315e-02
-2.478603137551119162e-02
-4.192129986638795658e-02
-6.234682784513009834e-02
-8.504427252581847618e-02
-1.089205571325168320e-01
-1.328496828372333072e-01
-1.556924010140654513e-01
-1.762946775214526141e-01
-1.934710252880046943e-01
-2.059832650780161756e-01
-2.125283962583685571e-01
-2.117502828181797581e-01
-2.022880668752231881e-01
-1.828692227616523502e-01
-1.524472796224977111e-01
-1.103745983822486953e-01
-5.659082922083150113e-02
8.200493647802314934e-03
8.239976912512443630e-02
1.634564331873584742e-01
2.479185834316641190e-01
3.316024378589619848e-01
4.098800059840216337e-01
4.780639189693403068e-01
5.318493982996818081e-01
5.677579334183537885e-01
5.835188397468027421e-01
5.783269783357734006e-01
5.529296958331351153e-01
5.095227314695722765e-01
4.514690369907081724e-01
3.828884171018409610e-01
3.081901289652005937e-01
2.316273178742835614e-01
1.569394702111156781e-01
8.712229530374658582e-02
2.433346265960328880e-02
-3.008327150659734217e-02
-7.548874098368568708e-02
-1.117922809926029382e-01
-1.392846297482208395e-01
-1.584881472490647369e-01
-1.700429553761939050e-01
-1.746372772463590239e-01
-1.729806831081608098e-01
-1.658113607971710701e-01
-1.539238413885837264e-01
-1.382021195861790619e-01
-1.196443683494574639e-01
-9.936859081003179828e-02
-7.859276876448864635e-02
-5.858778606628925467e-02
-4.060617060577945137e-02
-2.579402058707172540e-02
-1.509680406571012323e-02
-9.171497200515021930e-03
-8.317403245070215112e-03
-1.243601901050514491e-02
-2.102693542510286617e-02
-3.322255584169225839e-02
-4.785986305485859238e-02
-6.358295760536905594e-02
-7.896611795933272671e-02
-9.264433704894148303e-02
-1.034372749961584848e-01
-1.104535815382472752e-01
-1.131652736360715950e-01
-1.114456008298323475e-01
-1.055678738280769746e-01
-9.616660018794320752e-02
-8.416577697828481197e-02
-7.068225413581488703e-02
-5.691447506360963748e-02
-4.402818581841522194e-02
-3.305052353174225965e-02
-2.478232546180594853e-02
-1.973602794982751152e-02
-1.810364898750935203e-02
-1.975631738840891161e-02
-2.427374056488532106e-02
-3.099910362147198506e-02
-3.911254952251358441e-02
-4.771503496709444958e-02
-5.591417859455993788e-02
-6.290446114635933617e-02
-6.803529194066298968e-02
-7.086170273035646838e-02
-7.117384735636192450e-02
-6.900332756292035241e-02
-6.460667109059267665e-02
-5.842871417742939721e-02
-5.105064705021608584e-02
-4.312867429769345895e-02
-3.532959679254360497e-02
-2.826940712706024761e-02
-2.246043603862840632e-02
-1.827164647620391214e-02
-1.590518624789086233e-02
-1.539034831725610841e-02
-1.659403424136032812e-02
-1.924515121824449393e-02
-2.296937968113660355e-02
-2.733036279958270254e-02
-3.187330188134046560e-02
-3.616699733802017369e-02
-3.984063745550794899e-02
-4.261230137673072127e-02
-4.430722763232250450e-02
-4.486516211895014150e-02
-4.433718329414326753e-02
-4.287309507604764036e-02
-4.070087703570907101e-02
-3.810008478196696968e-02
-3.537168064000986711e-02
-3.280738703702643089e-02
-3.066189722182091626e-02
-2.913085433004031222e-02
-2.833648984579090202e-02
-2.832159367300693398e-02
-2.905148405587193450e-02
-3.042298198778414786e-02
-3.227890881760819841e-02
-3.442614738956834008e-02
-3.665490335422302848e-02
-3.875674909712145677e-02
-4.053953223143938467e-02
-4.183814302240843053e-02
-4.252102877983562901e-02
-4.249287961906550448e-02
-4.169412184138954203e-02
-4.009800815322339673e-02
-3.770633529446576482e-02
-3.454500064628809874e-02
-3.066044186839300689e-02
-2.611739656717698699e-02
-2.099765687427682104e-02
-1.539904290980553814e-02
-9.433908623619285949e-03
-3.226889194530124794e-03
3.088143461076969798e-03
9.371998897401478956e-03
1.548513544265389674e-02
2.129366186485406875e-02
2.667590499458627473e-02
3.152871050615543846e-02
3.577267831455535618e-02
3.935595806181074741e-02
4.225674936825152272e-02
4.448488495889799110e-02
4.608261609442199092e-02
4.712414284161281497e-02
4.771299526070080232e-02
4.797644376279022738e-02
4.805669443358792647e-02
4.809937791877932911e-02
4.824039660050552514e-02
4.859243640976321221e-02
4.923255461005823785e-02
5.019242142457361333e-02
5.145294674676481606e-02
5.294484199416113479e-02
5.455589773997265857e-02
5.614449210175026517e-02
5.755751304477271790e-02
5.864996828106558424e-02
5.930330996420549172e-02
5.943984261514058398e-02
5.903129022805581050e-02
5.810049617048534953e-02
5.671623704734410354e-02
5.498216831274141403e-02
5.302180276215526233e-02
5.096191240574460268e-02
4.891670192861152788e-02
4.697462856886591709e-02
4.518914213313904304e-02
4.357414825522479274e-02
4.210463246298937201e-02
4.072239069007105305e-02
3.934607853728053217e-02
3.788400353423537759e-02
3.624760412819053035e-02
3.436363514840748423e-02
3.218363418156380829e-02
2.968993169861128267e-02
2.689800362706695758e-02
2.385536235220475643e-02
2.063759205096393767e-02
1.734250740731044238e-02
1.408347961151842909e-02
1.098256476982423235e-02
8.163400118473579381e-03
5.743397463118582458e-03
3.824934847906719115e-03
2.485951109029799211e-03
1.771125447776272788e-03
1.685194676109225131e-03
2.189740151272184798e-03
3.204145367839000835e-03
4.610741184758959665e-03
6.263662895699600996e-03
8.000622691988784618e-03
9.656501136417861009e-03
1.107734242908775535e-02
1.213313693195050558e-02
1.272787810791259355e-02
1.280586858183621612e-02
1.235396281996409273e-02
1.140002239348536506e-02
1.000809050500559017e-02
8.270780877730726788e-03
6.299414165454597647e-03
4.212662584883924977e-03
2.124787090066665440e-03
1.347745395589849959e-04
-1.682351768384493518e-03
-3.281070948074976679e-03
-4.647185011567717128e-03
-5.795738006853540236e-03
-6.765229219703877694e-03
-7.608799696491030939e-03
-8.383661407895620643e-03
-9.140513248383302924e-03
-9.914744527797197948e-03
-1.072074612172047026e-02
-1.154983094816564027e-02
-1.237153287613801389e-02
-1.313775916565135260e-02
-1.378935339144043981e-02
-1.426463558675758470e-02
-1.450910616478789938e-02
-1.448492726352726412e-02
-1.417852614924042243e-02
-1.360501106717465492e-02
-1.280892456939008994e-02
-1.186172499478652109e-02
-1.085682590564801542e-02
-9.902915488408131628e-03
-9.115927827660130767e-03
-8.609897456535148264e-03
-8.487172835353468114e-03
-8.828852661198177687e-03
-9.686468003085674239e-03
-1.107574027964097763e-02
-1.297291637468195313e-02
-1.531399068740468827e-02
-1.799707517478213448e-02
-2.088803869584590633e-02
-2.382914996887150472e-02
-2.664994721629912466e-02
-2.917921924775551679e-02
-3.125700978884868309e-02
-3.274584258515100821e-02
-3.354061353626433539e-02
-3.357664978721566773e-02
-3.283541336856207749e-02
-3.134742122328537661e-02
-2.919219093257247044e-02
-2.649524878398798466e-02
-2.342229020083536062e-02
-2.017047820124626134e-02
-1.695683051230773009e-02
-1.400392720967574833e-02
-1.152379257165361826e-02
-9.701501735703110807e-03
-8.680457056403190208e-03
-8.551156710670027028e-03
-9.344713198444126734e-03
-1.103161884518588653e-02
-1.352552610427729118e-02
-1.669123542321290787e-02
-2.035571319938533907e-02
-2.432080865403449255e-02
-2.837638278637086287e-02
-3.231278898495701379e-02
-3.593202971090161957e-02
-3.905733445060591280e-02
-4.154115553181605969e-02
-4.327157024105843242e-02
-4.417696728402817352e-02
-4.422894618609918282e-02
-4.344363791362343408e-02
-4.188190725871540621e-02
-3.964878053837403438e-02
-3.689190384942206413e-02
-3.379819840767822603e-02
-3.058756062947171062e-02
-2.750266582728630449e-02
-2.479458082829699705e-02
-2.270469214502113253e-02
-2.144415875890598455e-02
-2.117261938874390181e-02
-2.197827390380960311e-02
-2.386172292908078640e-02
-2.672594006751641271e-02
-3.037429031051147588e-02
-3.451761147456725021e-02
-3.879028753421306930e-02
-4.277426702698167160e-02
-4.602930024821985655e-02
-4.812727996076807124e-02
-4.868831206870150030e-02
-4.741583923313669180e-02
-4.412778059178851242e-02
-3.878044075274514335e-02
-3.148215253230238209e-02
-2.249438620939417377e-02
-1.221929474723418285e-02
-1.174105114899848257e-03
1.004587082011532129e-02
2.081269816442646303e-02
3.051599729376433534e-02
3.861360620463948068e-02
4.467847494889748416e-02
4.843791367627592326e-02
4.980188168358880285e-02
4.887759139956823762e-02
4.596829814256017666e-02
4.155491705616951026e-02
3.626027189455921507e-02
3.079741846738093258e-02
2.590542798133183000e-02
2.227788151654205850e-02
2.049069336438388844e-02
2.093649829225660564e-02
2.377271769078245778e-02
2.888966082785118794e-02
3.590356666323080148e-02
4.417719455456843580e-02
5.286752365599056702e-02
6.099689113967224352e-02
6.754128713116863691e-02
7.152800654220425880e-02
7.213426695928246146e-02
6.877817249012864453e-02
6.119319568377878937e-02
4.947745103685183277e-02
3.411015020546460941e-02
1.593028837408549947e-02
-3.923281869011752132e-03
-2.410640023625004735e-02
-4.319021909804984793e-02
-5.979586792779234550e-02
-7.272915078174913006e-02
-8.110082731911341658e-02
-8.441913565895006744e-02
-8.264394394689766887e-02
-7.619617434015624191e-02
-6.592137571741107926e-02
-5.301164522784257427e-02
-3.889471898411908657e-02
-2.510247897340997514e-02
-1.313308523612835566e-02
-4.321266485339703145e-03
2.701101332047151082e-04
-7.282466156702249727e-05
-5.674660161132993874e-03
-1.646778825620340281e-02
-3.202270000900150904e-02
-5.160384523108343946e-02
-7.424129626055475661e-02
-9.880755122640832999e-02
-1.240889377663206283e-01
-1.488423951406617762e-01
-1.718312817968508099e-01
-1.918383392144695221e-01
-2.076593957902697074e-01
-2.180866142000709440e-01
-2.218938768903149228e-01
-2.178384848074437219e-01
-2.046923658877796426e-01
-1.813123808425169958e-01
-1.467532024691395320e-01
-1.004180554597640107e-01
-4.223320571644678667e-02
2.717710433886583177e-02
1.063455662977141197e-01
1.928793926585225249e-01
2.834699534168073076e-01
3.740143632537435980e-01
4.598547168915435024e-01
5.361234121208144909e-01
5.981644437279950433e-01
6.419832267110038293e-01
6.646652554139808045e-01
6.647010070971894891e-01
6.421637141045575259e-01
5.987076555117657461e-01
5.373838498107836870e-01
4.623013017575800521e-01
3.781879200614858272e-01
2.899194793056145691e-01
2.020845407584584974e-01
1.186396116839625037e-01
4.268696040240393952e-02
-2.361666281795346545e-02
-7.903362484143935940e-02
-1.231299497001845933e-01
-1.561070445173724786e-01
-1.786167978897796049e-01
-1.915901977495909903e-01
-1.961001484132858519e-01
-1.932686803895359295e-01
-1.842189688477390008e-01
-1.700646349937886270e-01
-1.519234689493970669e-01
-1.309404126553100067e-01
-1.083053295396035065e-01
-8.525420655582433005e-02
-6.304709148534448637e-02
-4.292131909949836732e-02
-2.602363658428902271e-02
-1.332912561613214253e-02
-5.557886604673850650e-03
-3.101862573047869942e-03
-5.973576570746819137e-03
-1.378595269734753104e-02
-2.576836342823746184e-02
-4.081949692587399925e-02
-5.759332649387696734e-02
-7.461076637465108297e-02
-9.038666450634499916e-02
-1.035598096390254741e-01
-1.130129070049052942e-01
-1.179702443794815037e-01
-1.180630687894380360e-01
-1.133562372088517123e-01
-1.043338942556010784e-01
-9.184613249213427477e-02
-7.702241259601785850e-02
-6.116075338136434114e-02
-4.560408563663120862e-02
-3.161633102653760297e-02
-2.027044384499737673e-02
-1.235888392437622940e-02
-8.334152290011415110e-03
-8.283632595483009231e-03
-1.193946071382409602e-02
-1.872074730360465122e-02
-2.780242296332363638e-02
-3.820257391824971593e-02
-4.887874336823444521e-02
-5.882351323740037108e-02
-6.715068445396796259e-02
-7.316516740847603395e-02
-7.641178225959963100e-02
-7.670019122395571598e-02
-7.410507424235038276e-02
-6.894258399813274485e-02
-6.172620241713505651e-02
-5.310716853711469621e-02
-4.380616203593962199e-02
-3.454347675646052274e-02
-2.597446535633543552e-02
-1.863590825618494096e-02
-1.290753287804297100e-02
-8.991339819588828330e-03
-6.909647347916880733e-03
-6.520850131177868825e-03
-7.550033392733357385e-03
-9.630185005561536782e-03
-1.234906888074735476e-02
-1.529677840529694577e-02
-1.810929156970716991e-02
-2.050385030020834831e-02
-2.230279542637308987e-02
-2.344378269359589928e-02
-2.397607276558511025e-02
-2.404451303980215116e-02
-2.386439134388840255e-02
-2.369113261331609599e-02
-2.378881172610497474e-02
-2.440098469453694241e-02
-2.572670406564278589e-02
-2.790380679518228435e-02
-3.100048375032990466e-02
-3.501478834743382285e-02
-3.988050602720027982e-02
-4.547717192064060221e-02
-5.164216930092116464e-02
-5.818348018978161673e-02
-6.489227750288278918e-02
-7.155481557357931677e-02
-7.796303857855296782e-02
-8.392326564839003300e-02
-8.926247415395549556e-02
-9.383208441559187651e-02
-9.750951193536000483e-02
-1.001979168171939216e-01
-1.018246231914095579e-01
-1.023387910875769580e-01
-1.017091317077965518e-01
-9.992256404677327120e-02
-9.698445295692753598e-02
-9.292041386225885491e-02
-8.777892843524176536e-02
-8.163361348525638439e-02
-7.458411579300203154e-02
-6.675508820373249330e-02
-5.829314999577250855e-02
-4.936189762089027155e-02
-4.013502230692334027e-02
-3.078773365989156963e-02
-2.148711169437034219e-02
-1.238247144416412815e-02
-3.597000187136489835e-03
4.778258077193148212e-03
1.268738270769273480e-02
2.010922150619509630e-02
2.705368192713236697e-02
3.355484836878488974e-02
3.966136610684631303e-02
4.542497673296411187e-02
5.088862738559565835e-02
5.607590396444556147e-02
6.098341256280573330e-02
6.557719653722676734e-02
6.979358540383207021e-02
7.354426954671888783e-02
7.672496279649027029e-02
7.922667594156972137e-02
8.094830898902252714e-02
8.180907178692412018e-02
8.175932021664762683e-02
8.078875784707739705e-02
7.893142531813060470e-02
7.626726281153974052e-02
7.292019344692185490e-02
6.905275629300738904e-02
6.485751140698256534e-02
6.054577612020173305e-02
5.633456301281916656e-02
5.243269780531656377e-02
4.902698229845922628e-02
4.626909855648034253e-02
4.426394520636683927e-02
4.306031361104448174e-02
4.264504581811476291e-02
4.294176356090909086e-02
4.381479655457529154e-02
4.507823560577417510e-02
4.650939864611711161e-02
4.786562995579393687e-02
4.890321073135503460e-02
4.939702850760102626e-02
4.915941443830562640e-02
4.805636668922910748e-02
4.601951487095573556e-02
4.305271870736726569e-02
3.923288805680114066e-02
3.470512741396852840e-02
2.967253862403673725e-02
2.438114295630502970e-02
1.910066523220932400e-02
1.410245886628333500e-02
9.636509878437587995e-03
5.909928274838410767e-03
3.069309339220699373e-03
1.188791462106736363e-03
2.648472210987906639e-04
2.181465289332051860e-04
9.022714280312871260e-04
2.118466759865739180e-03
3.634892093187486184e-03
5.208169736185236376e-03
6.604714652530097041e-03
7.619574738645412681e-03
8.091178959501593715e-03
7.911117782141957600e-03
7.028585323519798145e-03
5.449455111738388258e-03
3.230396359121284755e-03
4.690571742982652115e-04
-2.708069777126759226e-03
-6.158257877417805393e-03
-9.734086040417283536e-03
-1.329300889752538239e-02
-1.670469157525214521e-02
-1.985617728040223184e-02
-2.265504906610107949e-02
-2.503089198390631709e-02
-2.693567545318886758e-02
-2.834389060852599007e-02
-2.925305994646820729e-02
-2.968461050704460091e-02
-2.968445791012758184e-02
-2.932242562479692172e-02
-2.868997769513983997e-02
-2.789638433060304124e-02
-2.706383267797068948e-02
-2.632185581685483888e-02
-2.580101223848976777e-02
-2.562547674701587397e-02
-2.590436062763254443e-02
-2.672202775689097587e-02
-2.812806858783398201e-02
-3.012773932820345113e-02
-3.267369022957714031e-02
-3.565992838328185810e-02
-3.891922176672540923e-02
-4.222533661165642216e-02
-4.530134479598790787e-02
-4.783463665947260135e-02
-4.949836087268053020e-02
-4.997807526185196747e-02
-4.900164564842215964e-02
-4.636984535265595286e-02
-4.198453001989896349e-02
-3.587071794783658341e-02
-2.818876132994826977e-02
-1.923351476420318007e-02
-9.419090276859998223e-03
7.500423629722974272e-04
1.071890654969787082e-02
1.992884612856610227e-02
2.786680420950726766e-02
3.411253188495354249e-02
3.837953466017135495e-02
4.054601743041358342e-02
4.067260526583862945e-02
3.900433613950654577e-02
3.595553752002055015e-02
3.207771255582803072e-02
2.801221667007780525e-02
2.443101949545356533e-02
2.197014166837843452e-02
2.116147234899570795e-02
2.236951448905294404e-02
2.573986813515768968e-02
3.116567128952056620e-02
3.827679694145147415e-02
4.645466881136935122e-02
5.487341763229014457e-02
6.256581327771595924e-02
6.850988199645499654e-02
7.172942428305603690e-02
7.139914027289018250e-02
6.694322097592378396e-02
5.811557212747434087e-02
4.505079184844862361e-02
2.827785479590433360e-02
8.692815265429088001e-03
-1.250814185501439302e-02
-3.392923927916377536e-02
-5.409932695385613610e-02
-7.160720047043572789e-02
-8.523413201019763852e-02
-9.406998778647426840e-02
-9.760112034411885795e-02
-9.576125296953358346e-02
-8.894031956026199337e-02
-7.795033161161787905e-02
-6.395166274032637599e-02
-4.834743752248424342e-02
-3.265738767841433465e-02
-1.838478103649318629e-02
-6.890322959937411618e-03
7.146156279604354289e-04
3.645946125236193547e-03
1.490129703111436887e-03
-5.789001134909738111e-03
-1.787734278818065015e-02
-3.416489665698699274e-02
-5.381740468910548025e-02
-7.585330663406558704e-02
-9.921411611528857533e-02
-1.228183106864965124e-01
-1.455923163131315756e-01
-1.664765757547491676e-01
-1.844096683238304890e-01
-1.982986527030056456e-01
-2.069885213338303609e-01
-2.092467438589875051e-01
-2.037791175937469501e-01
-1.892897620104267431e-01
-1.645911894626001792e-01
-1.287609620309584368e-01
-8.133103818422809939e-02
-2.248610954007004836e-02
4.676049046082231264e-02
1.244487547551379886e-01
2.076458328012367183e-01
2.925374055564841647e-01
3.746473415517561634e-01
4.491768259660164908e-01
5.114330940875397857e-01
5.572985929940876826e-01
5.836773130273229526e-01
5.888500172144044420e-01
5.726775501166324611e-01
5.366125741241198899e-01
4.835125195894826033e-01
4.172836730069028333e-01
3.424186410840194261e-01
2.635074476984824998e-01
1.848008853283423236e-01
1.098850328576769231e-01
4.149585604644545622e-02
-1.852757241484115358e-02
-6.917592313962886430e-02
-1.101261332183284536e-01
-1.415623064632503814e-01
-1.639973648542367157e-01
-1.781228374672889359e-01
-1.847029508364245454e-01
-1.845177335959824749e-01
-1.783499336083739784e-01
-1.670035648665833261e-01
-1.513384628692599765e-01
-1.323050196026666070e-01
-1.109654898262144584e-01
-8.849214326516355311e-02
-6.613748726224275010e-02
-4.517718132558828925e-02
-2.683131102950903069e-02
-1.217355232974465240e-02
-2.039924921532515478e-03
3.050728359602322692e-03
2.953454966249019487e-03
-2.077646094517965336e-03
-1.140108724091612458e-02
-2.403739218807318667e-02
-3.875244228814483938e-02
-5.416671846153239822e-02
-6.887928604159357371e-02
-8.159378898408137237e-02
-9.123366763639578769e-02
-9.703512385432949694e-02
-9.860881410038485617e-02
-9.596459995842704371e-02
-8.949759305050258851e-02
-7.993777533339901931e-02
-6.826918797901865288e-02
-5.562762714397642694e-02
-4.318762682857776869e-02
-3.205008366060810299e-02
-2.314127306968319364e-02
-1.713249652206791374e-02
-1.438742129359688038e-02
-1.494140302886212690e-02
-1.851378698211286755e-02
-2.455066620688964307e-02
-3.229237633588122325e-02
-4.085765532717827719e-02
-4.933515797774212785e-02
-5.687288314489860608e-02
-6.275689568515030459e-02
-6.647230028471168284e-02
-6.774155153848865352e-02
-6.653767755200901135e-02
-6.307260354349447651e-02
-5.776316744245260648e-02
-5.117937842663131121e-02
-4.398091205100507217e-02
-3.684874613358271600e-02
-3.041910534770358998e-02
-2.522634070259480166e-02
-2.165999966514936537e-02
-1.993932945831941583e-02
-2.010614720806494504e-02
-2.203485863264698086e-02
-2.545683448292856976e-02
-2.999549327242503893e-02
-3.520805513281147214e-02
-4.062974056157767078e-02
-4.581620420000809268e-02
-5.038046373414975521e-02
-5.402159339990228459e-02
-5.654369861234928574e-02
-5.786471414393085100e-02
-5.801518296297694666e-02
-5.712758901947120882e-02
-5.541738649646960058e-02
-5.315770673245234779e-02
-5.065055323035116963e-02
-4.819764656155556271e-02
-4.607370868872409653e-02
-4.450409531158469600e-02
-4.364780951175861734e-02
-4.358644171384920551e-02
-4.431942362196247820e-02
-4.576579569997152319e-02
-4.777220970036347159e-02
-5.012620550947186060e-02
-5.257324352482264929e-02
-5.483582147869947576e-02
-5.663325368222524303e-02
-5.770104903438177946e-02
-5.780897256272610196e-02
-5.677676308649837189e-02
-5.448635790146111324e-02
-5.088962101080785061e-02
-4.601099624061741333e-02
-3.994497648167338877e-02
-3.284861030042626751e-02
-2.492953063449546147e-02
-1.643038573310384720e-02
-7.611095074376017511e-03
1.269218108286451763e-03
9.968746477159839969e-03
1.827653482147562070e-02
2.602224848575299121e-02
3.308192643171281588e-02
3.937972314959775622e-02
4.488573355686970023e-02
4.961021146384761438e-02
5.359496109875744319e-02
5.690319079207678543e-02
5.960932224924522793e-02
6.179001316335475114e-02
6.351714752243102502e-02
6.485305889074503838e-02
6.584794590860176822e-02
6.653929864471554156e-02
6.695304391387577048e-02
6.710594034240489891e-02
6.700857168287406573e-02
6.666826558662294899e-02
6.609149022001900575e-02
6.528563521867164487e-02
6.426032196796060969e-02
6.302836877632053691e-02
6.160636830540948405e-02
6.001476366795746586e-02
5.827745587169610997e-02
5.642119702000905623e-02
5.447504997051427766e-02
5.246992209868800439e-02
5.043783039433188953e-02
4.841047894224899395e-02
4.641704563885466761e-02
4.448154145024987849e-02
4.262035576649700341e-02
4.084047550233696477e-02
3.913852270083811868e-02
3.750049811109879005e-02
3.590213071756873098e-02
3.430993705812995787e-02
3.268321679238817001e-02
3.097706493943455652e-02
2.914617939602684449e-02
2.714904643111101801e-02
2.495210708719128312e-02
2.253364628136264591e-02
1.988722688740912625e-02
1.702438377840956307e-02
1.397605767294596291e-02
1.079216676771796446e-02
7.539023375429443341e-03
4.294876386126939005e-03
1.144266330879661897e-03
-1.828177529424185321e-03
-4.544212085700216619e-03
-6.938612799309545887e-03
-8.965629738521191383e-03
-1.060455716472083476e-02
-1.186356634038968072e-02
-1.278119564168073152e-02
-1.342530372989486631e-02
-1.388952104372445651e-02
-1.428718155535255163e-02
-1.474265006970904013e-02
-1.538023933193960469e-02
-1.631160265929970654e-02
-1.762322818002312608e-02
-1.936591597560938238e-02
-2.154768053662065030e-02
-2.413071489628462740e-02
-2.703240104393977994e-02
-3.013009582244435824e-02
-3.326940181013135489e-02
-3.627551609483070649e-02
-3.896687714182484052e-02
-4.116989167456608367e-02
-4.273336337142943919e-02
-4.354147873175093220e-02
-4.352459711527892350e-02
-4.266731973991680360e-02
-4.101329361417327402e-02
-3.866613401655683013e-02
-3.578595947665880184e-02
-3.258138964760790013e-02
-2.929732630795700565e-02
-2.619921664895799585e-02
-2.355466922796503604e-02
-2.161333231199280558e-02
-2.058607772646076084e-02
-2.062491099556768015e-02
-2.180549766402539724e-02
-2.411437186723236481e-02
-2.744253860155107527e-02
-3.158647058662666929e-02
-3.625682529608464932e-02
-4.109474563753293119e-02
-4.569519541397404350e-02
-4.963618334861277792e-02
-5.251191395014889740e-02
-5.396707867868813513e-02
-5.372901520652595408e-02
-5.163458735710585445e-02
-4.764929459090541664e-02
-4.187688624067717469e-02
-3.455828198190247225e-02
-2.605896233265869721e-02
-1.684457151667759223e-02
-7.445537001221663731e-03
1.587067641878520119e-03
9.730825263923825741e-03
1.654190182342682447e-02
2.170058702208527146e-02
2.504736737664502166e-02
2.660482858528576133e-02
2.658174051202996657e-02
2.535755327759914302e-02
2.344799898624158607e-02
2.145495941060805711e-02
2.000559659027281723e-02
1.968667720980191160e-02
2.098023743799569407e-02
2.420655575158395245e-02
2.947991724519447021e-02
3.668176590180846630e-02
4.545454696308345865e-02
5.521795577586380288e-02
6.520751482375210240e-02
7.453346267281676929e-02
8.225599922194787306e-02
8.747115210858984191e-02
8.940001731031935184e-02
8.747303445043291825e-02
8.140056120093923375e-02
7.122154898354357555e-02
5.732359366260747491e-02
4.042989344593522771e-02
2.155162363969864714e-02
1.907930870336582707e-03
-1.718007955098085904e-02
-3.441105414280343222e-02
-4.862776640721996890e-02
-5.893028820016554814e-02
-6.476523331502259673e-02
-6.598115397226494983e-02
-6.284413115070036637e-02
-5.601209421313296799e-02
-4.647081788933543622e-02
-3.543846184338991789e-02
-2.424875724736744176e-02
-1.422533819333546279e-02
-6.560896241408070706e-03
-2.214328153380518138e-03
-1.836635528532526429e-03
-5.732330199340662791e-03
-1.385822688697851968e-02
-2.585657889016471089e-02
-4.111516413432067529e-02
-5.884355278048664095e-02
-7.815272037198728317e-02
-9.812487210360926193e-02
-1.178622687029909077e-01
-1.365080254339083587e-01
-1.532376462871997413e-01
-1.672263495960035762e-01
-1.776029281913097668e-01
-1.834051128777725304e-01
-1.835535655620229578e-01
-1.768612150190331522e-01
-1.620911473499109801e-01
-1.380693275467029801e-01
-1.038484352643510300e-01
-5.890752203416169119e-02
-3.361251392927616655e-03
6.185564069703652912e-02
1.348665317711154887e-01
2.128290319201578962e-01
2.920347334420532737e-01
3.681419669114284199e-01
4.365297828577267003e-01
4.927385916434107727e-01
5.329424313362284282e-01
5.543841119568475584e-01
5.557019701429831704e-01
5.370889301549659489e-01
5.002512128556689808e-01
4.481711048433796862e-01
3.847170276866530569e-01
3.141737418478324217e-01
2.407766625640911373e-01
1.683240104387538905e-01
9.991395319955509446e-02
3.782135130985850302e-02
-1.649958359253694828e-02
-6.231851364980553476e-02
-9.947691992869034383e-02
-1.282180151341634489e-01
-1.490289856973688321e-01
-1.625164842423296174e-01
-1.693261235974784507e-01
-1.701070607653923650e-01
-1.655146302731934083e-01
-1.562383061777500304e-01
-1.430396420356417897e-01
-1.267852755881678783e-01
-1.084629759700481422e-01
-8.917308726286721221e-02
-7.009264065835985047e-02
-5.241417658245681177e-02
-3.726552484652578823e-02
-2.562015403484849130e-02
-1.820983723591254599e-02
-1.545179468715002224e-02
-1.740090381891037929e-02
-2.373431200801773278e-02
-3.377162787773635433e-02
-4.652964674276122148e-02
-6.080679690714374530e-02
-7.528933379339852738e-02
-8.866887701296172208e-02
-9.975948562861786106e-02
-1.076024504051145136e-01
-1.115484495118496122e-01
-1.113093820959039082e-01
-1.069755204877525512e-01
-9.899708641433174749e-02
-8.813267951789477417e-02
-7.537008362479744039e-02
-6.182769294340681454e-02
-4.864674152448006383e-02
-3.688522598491811300e-02
-2.742372854283750550e-02
-2.089157759972656847e-02
-1.761945086910143843e-02
-1.762198897615885329e-02
-2.061128484225796531e-02
-2.603917724378684850e-02
-3.316324709312309937e-02
-4.112876666377990320e-02
-4.905721791977663004e-02
-5.613178792535736261e-02
-6.167137896042673706e-02
-6.518665992003280785e-02
-6.641402779768276754e-02
-6.532574663820586713e-02
-6.211687370292273691e-02
-5.717178809115286420e-02
-5.101502303433388952e-02
-4.425237369550757971e-02
-3.750868182233824122e-02
-3.136835730299450398e-02
-2.632389047644756452e-02
-2.273656477718724589e-02
-2.081231029818117473e-02
-2.059410339112993649e-02
-2.197057470454966133e-02
-2.469874709049563188e-02
-2.843742354733910793e-02
-3.278697471537134200e-02
-3.733115813617837730e-02
-4.167692346609769283e-02
-4.548870270523330817e-02
-4.851436570128536685e-02
-5.060086145317610473e-02
-5.169862962733631773e-02
-5.185513878183467540e-02
-5.119918048592952964e-02
-4.991850238794079408e-02
-4.823380712671715420e-02
-4.637213095141395902e-02
-4.454231459407187455e-02
-4.291479754959928727e-02
-4.160731919274002211e-02
-4.067730382012610391e-02
-4.012085243306706683e-02
-3.987758123113130382e-02
-3.984019545991104860e-02
-3.986759776054454862e-02
-3.980027208617015200e-02
-3.947650805449179345e-02
-3.874781656538983654e-02
-3.749187690402933093e-02
-3.562172308106789642e-02
-3.309053007954113057e-02
-2.989198361211828359e-02
-2.605657569761340997e-02
-2.164436884485806956e-02
-1.673513564639184104e-02
-1.141741258745743171e-02
-5.778565205807717486e-03
1.020469309460092511e-04
6.155462077710505131e-03
1.232091638009108481e-02
1.854006464609087024e-02
2.474941099468899730e-02
3.087303901689877894e-02
3.681761664386018484e-02
4.247118580238543051e-02
4.770648376588108863e-02
5.238860039039786032e-02
5.638586251877858446e-02
5.958220452282490809e-02
6.188913238840776376e-02
6.325573093952696624e-02
6.367573992589653509e-02
6.319114386124294325e-02
6.189181445456895525e-02
5.991077741348838082e-02
5.741507150365279810e-02
5.459299838048818632e-02
5.163941206494788994e-02
4.874106071649789151e-02
4.606370628686004554e-02
4.374204576742285466e-02
4.187274336012244969e-02
4.051046292384465064e-02
3.966671512193500893e-02
3.931139896123972410e-02
3.937686027768934338e-02
3.976404789012755181e-02
4.035011655276042608e-02
4.099684141836590356e-02
4.155948698892046600e-02
4.189606068239257186e-02
4.187688151274887582e-02
4.139406362932754324e-02
4.037011195367248839e-02
3.876467017326382103e-02
3.657862870360678587e-02
3.385507611312571496e-02
3.067672854138431271e-02
2.715956571099822914e-02
2.344273315346837028e-02
1.967545994476799232e-02
1.600253836401785423e-02
1.255039694489298863e-02
9.415726249407951887e-03
6.658078545649065427e-03
4.297144499003813234e-03
2.314724453568506313e-03
6.608110632372599103e-04
-7.373150787529647587e-04
-1.964461690439955888e-03
-3.107013258763446917e-03
-4.243977901971646149e-03
-5.440485226585467515e-03
-6.743915797106314614e-03
-8.182310233489642481e-03
-9.764581609630923476e-03
-1.148225008981387796e-02
-1.331259106967019878e-02
-1.522295545276286521e-02
-1.717563784433362439e-02
-1.913238816025575328e-02
-2.105777582916129598e-02
-2.292104191884775100e-02
-2.469647755594614469e-02
-2.636254217242189890e-02
-2.789997653515846610e-02
-2.928929862293033759e-02
-3.050837432541114724e-02
-3.153101820452802739e-02
-3.232747712200700896e-02
-3.286710794036046268e-02
-3.312286752237328380e-02
-3.307677482691351312e-02
-3.272545779065286209e-02
-3.208513113511393677e-02
-3.119555934104362160e-02
-3.012253087975139132e-02
-2.895818770795038910e-02
-2.781850634052779325e-02
-2.683749086784187332e-02
-2.615808846157482992e-02
-2.592021244343076236e-02
-2.624647486267908669e-02
-2.722646845092305257e-02
-2.890089509332621764e-02
-3.124746613618112345e-02
-3.417100117207783061e-02
-3.750017888289347567e-02
-4.099274443931286149e-02
-4.434972920818616715e-02
-4.723776729069262270e-02
-4.931737428763602327e-02
-5.027432584217142453e-02
-4.985094285409960579e-02
-4.787399730711505708e-02
-4.427613217898565545e-02
-3.910827527601046238e-02
-3.254148556277411397e-02
-2.485773667577437229e-02
-1.643003310429988484e-02
-7.692925121882299155e-03
8.948192596798520970e-04
8.892628263602514460e-03
1.592160950250144646e-02
2.170408001791536423e-02
2.609401666379432272e-02
2.909432728037553151e-02
3.085862541983662444e-02
3.167710586216401780e-02
3.194776658954215365e-02
3.213554441899105218e-02
3.272298431489772952e-02
3.415683211000598851e-02
3.679535588467085228e-02
4.086122225716176670e-02
4.640439353008074530e-02
5.327884918815856130e-02
6.113612294766859745e-02
6.943778081737989050e-02
7.748789933745117708e-02
8.448502723674725101e-02
8.959093910895961355e-02
9.201107424689548842e-02
9.107947747036193586e-02
8.633974000743446786e-02
7.761298523728599186e-02
6.504427498890526238e-02
4.911991697338433105e-02
3.065030197637315379e-02
1.071646314296319236e-02
-9.416596202424215578e-03
-2.841163465997745274e-02
-4.498385921155578782e-02
-5.802465568908865556e-02
-6.671075000746823358e-02
-7.058703247024811223e-02
-6.961418991984949511e-02
-6.417599574283958108e-02
-5.504536905290635662e-02
-4.331279092859074975e-02
-3.028486692186543872e-02
-1.736414514317186075e-02
-5.923174132148240068e-03
2.814055787425190358e-03
7.871546781693342099e-03
8.592419497928410754e-03
4.675901642264376767e-03
-3.821693614860843802e-03
-1.651952545865167932e-02
-3.277155567223372090e-02
-5.174235824583273136e-02
-7.248708694274708098e-02
-9.402321692719883828e-02
-1.153836005031996237e-01
-1.356439608714209433e-01
-1.539227452332495027e-01
-1.693568016341009674e-01
-1.810620096917351651e-01
-1.880928182956095041e-01
-1.894173949266152457e-01
-1.839247265688430666e-01
-1.704761598901143593e-01
-1.480069499500358821e-01
-1.156743469625730603e-01
-7.303874912652355555e-02
-2.025477524211247160e-02
4.175871327205082917e-02
1.112047217066775007e-01
1.853838561175044086e-01
2.607846005721906613e-01
3.332978559986951028e-01
3.985457639004335029e-01
4.522936997845741214e-01
4.908950537625806909e-01
5.117048372693639990e-01
5.133946999110838849e-01
4.961122669178887890e-01
4.614522787199289988e-01
4.122416126322361318e-01
3.521765872562269140e-01
2.853789911219021258e-01
2.159488618604620269e-01
1.475843513348272240e-01
8.331604787975763204e-02
2.537363387093656553e-02
-2.482418521391985267e-02
-6.658416748532347551e-02
-9.979387803821113123e-02
-1.247545772551396925e-01
-1.420225951890473626e-01
-1.522809592409816448e-01
-1.562526923054064487e-01
-1.546575066475047167e-01
-1.482058628523676980e-01
-1.376191608911200293e-01
-1.236622625074940973e-01
-1.071744111460626592e-01
-8.908659278024499972e-02
-7.041704603034770749e-02
-5.224141496174522503e-02
-3.563914323445799281e-02
-2.162218013212088841e-02
-1.105514195443152436e-02
-4.577473238888019047e-03
-2.538059071540033074e-03
-4.951480997809815099e-03
-1.148290749949876233e-02
-2.146555995320909016e-02
-3.395095052454996654e-02
-4.778807558816200451e-02
-6.172413664807646638e-02
-7.451673996933388944e-02
-8.504615401185261492e-02
-9.241610696584920404e-02
-9.603277208897903483e-02
-9.565395556046160652e-02
-9.140384859513744908e-02
-8.375258145225780715e-02
-7.346359047443251633e-02
-6.151489905558926718e-02
-4.900255540643649876e-02
-3.703573492297157488e-02
-2.663354919393165487e-02
-1.863337419762758906e-02
-1.361932074630928247e-02
-1.187724084363570021e-02
-1.337967096232037245e-02
-1.780091055427787672e-02
-2.455954347480462929e-02
-3.288338723896039317e-02
-4.189007672862779530e-02
-5.067515664884739146e-02
-5.839877176993604757e-02
-6.436214181953275881e-02
-6.806626105905907997e-02
-6.924758260735611182e-02
-6.788838762478024980e-02
-6.420252291654035548e-02
-5.859976157047339096e-02
-5.163398900384780221e-02
-4.394169542981166132e-02
-3.617780616596547039e-02
-2.895558851834859060e-02
-2.279622949453011249e-02
-1.809193424148569651e-02
-1.508447498164952605e-02
-1.385936350597397060e-02
-1.435435743853305524e-02
-1.637986337205082910e-02
-1.964799546046563927e-02
-2.380661792346172589e-02
-2.847466929154313098e-02
-3.327546518361099159e-02
-3.786545660984358408e-02
-4.195684650156256135e-02
-4.533323004662859201e-02
-4.785791998646371503e-02
-4.947502065933431781e-02
-5.020384675720793166e-02
-5.012795094807165341e-02
-4.938056972631216235e-02
-4.812838698980451135e-02
-4.655505330083997695e-02
-4.484519370321679577e-02
-4.316920930996454020e-02
-4.166932153591862420e-02
-4.044780217032956093e-02
-3.955861681884886849e-02
-3.900340153347697791e-02
-3.873194178313302261e-02
-3.864664031837874991e-02
-3.861023227672669145e-02
-3.845617292480948968e-02
-3.800128752530637644e-02
-3.706009329007092790e-02
-3.545972920383974603e-02
-3.305406535055996353e-02
-2.973566528222790217e-02
-2.544478302864078278e-02
-2.017509798545613631e-02
-1.397611588978478481e-02
-6.952143970109514459e-03
7.422146218827307962e-04
8.909803921579390051e-03
1.732121006625783610e-02
2.572665525151907051e-02
3.386864822462803959e-02
4.149490396016441984e-02
4.837128252708172704e-02
5.429437618217122785e-02
5.910301885122809518e-02
6.268775323970976476e-02
6.499738582647590635e-02
6.604208648148013339e-02
6.589277725107192674e-02
6.467667815935454478e-02
6.256897620124549086e-02
5.978087297092635199e-02
5.654478932179950179e-02
5.309806468814259883e-02
4.966677182485434994e-02
4.645108307972364847e-02
4.361309440869956533e-02
4.126751580934995278e-02
3.947548675567513765e-02
3.824193975210055108e-02
3.751706977690638656e-02
3.720225220701621482e-02
3.716019950878909905e-02
3.722855865827119637e-02
3.723577984909870464e-02
3.701791474230356482e-02
3.643485832576778827e-02
3.538436814881870673e-02
3.381213202461316736e-02
3.171645326344137150e-02
2.914687113537627050e-02
2.619704003869899323e-02
2.299308603648417271e-02
1.967916758036628022e-02
1.640207887628891692e-02
1.329661601721129904e-02
1.047319514844330390e-02
8.008856342796466521e-03
5.942274262186852951e-03
4.272788259238269326e-03
2.962915965125850759e-03
1.943502135817343213e-03
1.120670008301100085e-03
3.839879133823165258e-04
-3.845162750578390298e-04
-1.300849195006809067e-03
-2.469538186813335923e-03
-3.974668777075446302e-03
-5.872014569843514442e-03
-8.182816044376761688e-03
-1.088987674589311783e-02
-1.393671070040752857e-02
-1.723027623652217954e-02
-2.064730901594039048e-02
-2.404359913053255582e-02
-2.726504152209149878e-02
-3.015914377391393231e-02
-3.258589830279201571e-02
-3.442732018719160680e-02
-3.559529292869237360e-02
-3.603754099553305168e-02
-3.574159154470324395e-02
-3.473662904532384688e-02
-3.309328036444947330e-02
-3.092151061564010761e-02
-2.836678191574407149e-02
-2.560439534775194037e-02
-2.283168673262939152e-02
-2.025772867699715540e-02
-1.809054024942569061e-02
-1.652244259692012274e-02
-1.571484120666880036e-02
-1.578404495081392467e-02
-1.678962287596466596e-02
-1.872638852869057402e-02
-2.152062458123046862e-02
-2.503076201208120910e-02
-2.905244240837773217e-02
-3.332771033818379691e-02
-3.755797645036837440e-02
-4.142034239206057733e-02
-4.458687456041057762e-02
-4.674634224216975276e-02
-4.762758091041296993e-02
-4.702293344329033786e-02
-4.480943988947302947e-02
-4.096507057599418911e-02
-3.557762282086102124e-02
-2.884478247964736286e-02
-2.106482947324225807e-02
-1.261816678422816862e-02
-3.940297805317904967e-03
4.512546827859481580e-03
1.230288102558763086e-02
1.905290943192630704e-02
2.448226900639893788e-02
2.843775688180052996e-02
3.091114023634497499e-02
3.204269017825342458e-02
3.210971213180709161e-02
3.150072387109811856e-02
3.067709795589566857e-02
3.012515291154752028e-02
3.030287451764303308e-02
3.158636874226486424e-02
3.422142117877000067e-02
3.828512433469168086e-02
4.366173119725780261e-02
5.003595802517797619e-02
5.690586475512464382e-02
6.361599396893866110e-02
6.940953033586462484e-02
7.349600588620402997e-02
7.512898529221813393e-02
7.368670943007815666e-02
6.874798403570719918e-02
6.015543111312765534e-02
4.805837809040219843e-02
3.292837541848959992e-02
1.554219641382270645e-02
-3.069408996539846335e-03
-2.170432943079064758e-02
-3.909556008930015203e-02
-5.403053243226763058e-02
-6.547048842232544574e-02
-7.265675220475870111e-02
-7.519174505180947765e-02
-7.308497521361617677e-02
-6.675804611662911059e-02
-5.700763945702883029e-02
-4.493069552866901795e-02
-3.182064831677644534e-02
-1.904673648399796138e-02
-7.929744213048539603e-03
3.728184875895212969e-04
4.960731592613676355e-03
5.255589048063030733e-03
1.030732175129500661e-03
-7.594229324466073017e-03
-2.019069656366392906e-02
-3.608266203649701520e-02
-5.442233154990586130e-02
-7.426819118173896839e-02
-9.465409723929074648e-02
-1.146396674315540709e-01
-1.333354822150047692e-01
-1.499012265574455049e-01
-1.635204000033863292e-01
-1.733606865845826739e-01
-1.785334542012758097e-01
-1.780682118637435252e-01
-1.709175149350803669e-01
-1.560044705614651583e-01
-1.323188146004561361e-01
-9.905909801541756821e-02
-5.580877392726876773e-02
-2.724159538066400765e-03
5.929602307152088969e-02
1.284944793816571729e-01
2.022263631693215769e-01
2.770430363907857574e-01
3.488991417398155104e-01
4.134739815976722355e-01
4.665770010523191957e-01
5.045877344362583727e-01
5.248668727343274165e-01
5.260715888750733260e-01
5.083183621470934721e-01
4.731605870037713935e-01
4.233821714792639357e-01
3.626440641116555064e-01
2.950482925027347880e-01
2.246956452810077998e-01
1.553061315912987184e-01
8.994984134278850851e-02
3.090778757018550205e-02
-2.034417419790643389e-02
-6.305463470665306769e-02
-9.705540119518266118e-02
-1.225970839073285412e-01
-1.401931607639187172e-01
-1.504946062393116291e-01
-1.542063510641620838e-01
-1.520468465337805886e-01
-1.447441454203548250e-01
-1.330567318383849007e-01
-1.178048982650637677e-01
-9.989864142546994730e-02
-8.035049888268613882e-02
-6.026582445018330292e-02
-4.080779794247826886e-02
-2.313910640653715767e-02
-8.346143955977630702e-03
2.645479741248984995e-03
9.153468447969770327e-03
1.080818070849820511e-02
7.598549735379822589e-03
-1.130457822307029403e-04
-1.161073417007327246e-02
-2.587932175426682635e-02
-4.168796693269866127e-02
-5.769536885538525950e-02
-7.256627708238130858e-02
-8.508800701121099763e-02
-9.427560725954151066e-02
-9.945540892774457076e-02
-1.003188736620072574e-01
-9.694176722206943042e-02
-8.976733834637773413e-02
-7.955585167075140962e-02
-6.730602350058823014e-02
-5.415640312378611210e-02
-4.127651038548854623e-02
-2.975852049840160829e-02
-2.052020905931159489e-02
-1.422845714087719871e-02
-1.124997846079822672e-02
-1.163264170350761240e-02
-1.511747931332407813e-02
-2.117856902621886861e-02
-2.908553487820048078e-02
-3.798149423891064580e-02
-4.696806252416108052e-02
-5.518877548361042495e-02
-6.190310454396913409e-02
-6.654491678665067078e-02
-6.876134167179248635e-02
-6.843015031659277492e-02
-6.565571386906771112e-02
-6.074534315777163629e-02
-5.416935211689896668e-02
-4.650950612477305901e-02
-3.840143051681702002e-02
-3.047679761137198073e-02
-2.331058987775366798e-02
-1.737767911195048365e-02
-1.302173607904935637e-02
-1.043830460100592106e-02
-9.672682929535575402e-03
-1.063188800089981401e-02
-1.310844491244214649e-02
-1.681237326306164737e-02
-2.140699449672114896e-02
-2.654429001794084142e-02
-3.189632103702799704e-02
-3.718026758578088509e-02
-4.217564231812284681e-02
-4.673311350150052834e-02
-5.077517614782189881e-02
-5.428963736427760978e-02
-5.731746024505091075e-02
-5.993686403936956952e-02
-6.224568435452224047e-02
-6.434391426995955676e-02
-6.631817701409209453e-02
-6.822966685056633396e-02
-7.010674842359246317e-02
-7.194276604034521849e-02
-7.369866077276210348e-02
-7.530901792918273663e-02
-7.668966773259897063e-02
-7.774523182820547440e-02
-7.837581034861246243e-02
-7.848273098534580550e-02
-7.797351197404311929e-02
-7.676604675198286931e-02
-7.479192077505980585e-02
-7.199893451799815880e-02
-6.835316034304861343e-02
-6.384090273528747472e-02
-5.847065861744632498e-02
-5.227478186589656906e-02
-4.531035250162360195e-02
-3.765888769922587365e-02
-2.942489553621371878e-02
-2.073358667730171301e-02
-1.172808544352860194e-02
-2.566221377905214540e-03
6.583306243589964746e-03
1.554566666314335932e-02
2.414566471262272196e-02
3.221446629934016093e-02
3.959708157423580399e-02
4.616031976627604783e-02
5.180080517120430605e-02
5.645242247575721350e-02
6.009228437188554595e-02
6.274415161455691725e-02
6.447835673039641058e-02
6.540769387312042604e-02
6.567928625751878746e-02
6.546297029362245501e-02
6.493716602185028997e-02
6.427352956939685891e-02
6.362191616556987783e-02
6.309729304584388299e-02
6.277013939907438722e-02
6.266146618229852250e-02
6.274292079008375600e-02
6.294173577430622890e-02
6.314980868899278121e-02
6.323601977946682884e-02
6.306078489303661161e-02
6.249157894410067859e-02
6.141782866964590193e-02
5.976348468413728021e-02
5.749595865521003879e-02
5.463082082139300577e-02
5.123230604141489064e-02
4.740994630098870066e-02
4.331156528074256440e-02
3.911281522741852368e-02
3.500376001897437250e-02
3.117363650883217541e-02
2.779539831354943535e-02
2.501159871790423206e-02
2.292271343631491209e-02
2.157856444876626867e-02
2.097334593707295136e-02
2.104474709581602432e-02
2.167752166139697012e-02
2.271144277964143310e-02
2.395303719024832745e-02
2.519006739918608351e-02
2.620758158677416461e-02
2.680441227643648450e-02
2.680906873275848423e-02
2.609389826576266613e-02
2.458625223701682572e-02
2.227539752565987907e-02
1.921424151087303134e-02
1.551554767496202136e-02
1.134296438501955495e-02
6.897650538084720839e-03
2.401555202060534633e-03
-1.921340151705031030e-03
-5.864162551534657375e-03
-9.254689763437351502e-03
-1.196929501343541036e-02
-1.394178057279382710e-02
-1.516644155302443453e-02
-1.569556071693889443e-02
-1.563209068086787723e-02
-1.511849364611850266e-02
-1.432280182202766428e-02
-1.342316311443292332e-02
-1.259240876342843096e-02
-1.198424765877950660e-02
-1.172235887211972583e-02
-1.189303559257909315e-02
-1.254147505809921626e-02
-1.367155949428230932e-02
-1.524893903010068885e-02
-1.720708913290849851e-02
-1.945559935252336170e-02
-2.188945832272426451e-02
-2.439795114283282995e-02
-2.687220535146589429e-02
-2.921116937584997131e-02
-3.132636524550641566e-02
-3.314580971317113156e-02
-3.461716296706340845e-02
-3.570981025712477441e-02
-3.641551161745140708e-02
-3.674750391706957386e-02
-3.673828370873516436e-02
-3.643647572675864921e-02
-3.590314152861459607e-02
-3.520776792342897310e-02
-3.442415845840021693e-02
-3.362649175176635197e-02
-3.288572009053769563e-02
-3.226619019811677314e-02
-3.182206396144440785e-02
-3.159308287324741338e-02
-3.159954868438349940e-02
-3.183689021001928632e-02
-3.227055086999214284e-02
-3.283201696603510467e-02
-3.341671305818449955e-02
-3.388442455516910146e-02
-3.406296285937529533e-02
-3.375583868880521754e-02
-3.275449234377780794e-02
-3.085497921459393056e-02
-2.787806575464835124e-02
-2.369086269426379232e-02
-1.822774262569534787e-02
-1.150831979100483404e-02
-3.650403502188287463e-03
5.124115815143270858e-03
1.449237258573110587e-02
2.404402438076397308e-02
3.330545843698531905e-02
4.177361864480229336e-02
4.895707612407422527e-02
5.442103195333067300e-02
5.783229073279189114e-02
5.899973499802718679e-02
5.790550811347944249e-02
5.472223865803074738e-02
4.981250162123976311e-02
4.370839577649621166e-02
3.707140075416673342e-02
3.063512497160433834e-02
2.513572261261870500e-02
2.123636713563578637e-02
1.945314501497455439e-02
2.009009881402423758e-02
2.319088246326526936e-02
2.851348572433928807e-02
3.553263576741994001e-02
4.347185367942904555e-02
5.136407090557239263e-02
5.813669356322054282e-02
6.271434563431577125e-02
6.413016836972652845e-02
6.163447478796629797e-02
5.478827379967154965e-02
4.352961267504928955e-02
2.820337891256330387e-02
9.549728002978263852e-03
-1.134850130411602098e-02
-3.315431921887426747e-02
-5.439237987139436403e-02
-7.358084346042012558e-02
-8.936659509335798113e-02
-1.006506718849713156e-01
-1.066915738957840420e-01
-1.071762492197456673e-01
-1.022517559293519840e-01
-9.251457483508540580e-02
-7.895883362698305485e-02
-6.288880865865609238e-02
-4.580456298881666055e-02
-2.927216924024561573e-02
-1.479145664319492237e-02
-3.674395616942743859e-03
3.054125241523125700e-03
4.724249984986050865e-03
1.052931906118492744e-03
-7.860929794586940522e-03
-2.157411868825848122e-02
-3.936175138163028331e-02
-6.029417630660774408e-02
-8.331567783927038007e-02
-1.073128184512577854e-01
-1.311627960433072726e-01
-1.537566956302341414e-01
-1.739980245147521032e-01
-1.907823444044102756e-01
-2.029684031634397257e-01
-2.093544798464781753e-01
-2.086751779428187847e-01
-1.996329111481236207e-01
-1.809742240038940686e-01
-1.516139171635883520e-01
-1.108005910278219708e-01
-5.830714249155841133e-02
5.379451937330970157e-03
7.890148039147687475e-02
1.599419950856469097e-01
2.452362742627202663e-01
3.307049561045942720e-01
4.117140871745733066e-01
4.834467583762206977e-01
5.413496894041343044e-01
5.815998384067230242e-01
6.015248344595799379e-01
5.999105222017514505e-01
5.771415191808816347e-01
5.351460032436715641e-01
4.771501005747398327e-01
4.072829823651721304e-01
3.301017056914962722e-01
2.501165351424370353e-01
1.713895583717159332e-01
9.725555112220117537e-02
3.018316802973868007e-02
-2.823377232487814248e-02
-7.718459482442596720e-02
-1.164882424367174596e-01
-1.464164486759553518e-01
-1.675260863250051802e-01
-1.805237900977965659e-01
-1.861752065891354169e-01
-1.852606912423959695e-01
-1.785704449640296287e-01
-1.669261673735282780e-01
-1.512137882642574094e-01
-1.324124024086688611e-01
-1.116073672714104070e-01
-8.997975709716571346e-02
-6.876926791959625529e-02
-4.921261009989025270e-02
-3.246382257158322848e-02
-1.950624794981850596e-02
-1.106767036792699610e-02
-7.550129764911650554e-03
-8.984338094864985358e-03
-1.501585160355334292e-02
-2.492662537494930164e-02
-3.769160706553953410e-02
-5.206594666875544175e-02
-6.669467191074257562e-02
-8.023383679283427328e-02
-9.147066829141045630e-02
-9.943039962448407820e-02
-1.034592215342554078e-01
-1.032756613140209945e-01
-9.898613742026973750e-02
-9.106400900010278021e-02
-8.029491132156374444e-02
-6.769436058330194350e-02
-5.440625931034534513e-02
-4.159267207419800605e-02
-3.032577649106821260e-02
-2.149222310373732903e-02
-1.571854599958466547e-02
-1.332405780701512166e-02
-1.430495325616132352e-02
-1.835018670105545424e-02
-2.488631905276966760e-02
-3.314541797733272510e-02
-4.224779696046088162e-02
-5.129033118320425189e-02
-5.943137566380313208e-02
-6.596457011987669206e-02
-7.037549478504123712e-02
-7.237693085346080801e-02
-7.192045306799571547e-02
-6.918441550800960571e-02
-6.454094371571239552e-02
-5.850677691022296290e-02
-5.168415655211178183e-02
-4.469829378844625278e-02
-3.813757009740995074e-02
-3.250190173948402927e-02
-2.816372298105102034e-02
-2.534466691472908595e-02
-2.410918115666765837e-02
-2.437425995707809268e-02
-2.593266938813404421e-02
-2.848586705045055845e-02
-3.168235937423491411e-02
-3.515731132048102725e-02
-3.856956196231803302e-02
-4.163270653376494046e-02
-4.413768560257494422e-02
-4.596543620420198706e-02
-4.708941590640419728e-02
-4.756887941169204992e-02
-4.753446978269568191e-02
-4.716802853241208737e-02
-4.667873365656460827e-02
-4.627789832188530794e-02
-4.615493020330507790e-02
-4.645681708589291525e-02
-4.727294040080420867e-02
-4.862617082809517211e-02
-5.047036700882320814e-02
-5.269382691281243591e-02
-5.512797551277032193e-02
-5.756042557428103779e-02
-5.975130843704526407e-02
-6.145146814843757688e-02
-6.242098149388719541e-02
-6.244663561391863849e-02
-6.135732040091615436e-02
-5.903653945679465664e-02
-5.543131030972936468e-02
-5.055669407288271300e-02
-4.449527131057337548e-02
-3.739124871423993302e-02
-2.943952878928890460e-02
-2.087079323149104715e-02
-1.193421405294292637e-02
-2.879703285859291917e-03
6.058362044242149302e-03
1.467421875739002846e-02
2.279934367720720667e-02
3.030610123794871824e-02
3.710678190423222222e-02
4.314919640770972786e-02
4.841040996149850728e-02
5.289013334051811954e-02
5.660484669404286517e-02
5.958319496843519913e-02
6.186283976293677211e-02
6.348882918081263926e-02
6.451342322951461594e-02
6.499698460226463470e-02
6.500915280260950724e-02
6.462940606730747939e-02
6.394640470871447435e-02
6.305594874736560052e-02
6.205761213712913948e-02
6.105005475263605708e-02
6.012494313292045256e-02
5.935964600918855472e-02
5.880940547736004942e-02
5.850021288351840709e-02
5.842380754125389708e-02
5.853594399104829205e-02
5.875850088504010194e-02
5.898542774278089929e-02
5.909211585368323583e-02
5.894748354794368539e-02
5.842772799996918953e-02
5.743025752395836125e-02
5.588595353917494291e-02
5.376792606992153445e-02
5.109546842769177588e-02
4.793282082648933629e-02
4.438326538880563166e-02
4.057968223842643718e-02
3.667290101788489576e-02
3.281912704522677027e-02
2.916761436577761102e-02
2.584965576235681572e-02
2.296974118382710817e-02
2.059931296253628141e-02
1.877306620435487128e-02
1.748748622390322582e-02
1.670139159468411738e-02
1.633849045522600685e-02
1.629209044837526266e-02
1.643199246307286421e-02
1.661331622746842207e-02
1.668673197906805905e-02
1.650943492453121886e-02
1.595618232115389445e-02
1.492967940441242147e-02
1.336943045906394123e-02
1.125795075755994801e-02
8.623252591782704091e-03
5.536970888729453311e-03
2.108226080769715072e-03
-1.526034145002408415e-03
-5.213132760133465382e-03
-8.798020000437639654e-03
-1.213667511790944564e-02
-1.510826576565765800e-02
-1.762470894081669126e-02
-1.963642955424999004e-02
-2.113367923299655504e-02
-2.214365010678440160e-02
-2.272438136721025015e-02
-2.295673077953491736e-02
-2.293547163123998978e-02
-2.276025066368175809e-02
-2.252705689976475245e-02
-2.232098339387153518e-02
-2.221108700039053918e-02
-2.224780787996213927e-02
-2.246278907314103179e-02
-2.287040425390160503e-02
-2.347017547581953245e-02
-2.424953651716124647e-02
-2.518676393739394115e-02
-2.625401936355215016e-02
-2.742026051454418689e-02
-2.865356022256065893e-02
-2.992244037960020697e-02
-3.119619445151700088e-02
-3.244454041915950659e-02
-3.363702408231580843e-02
-3.474239055853237113e-02
-3.572796608736697466e-02
-3.655921388165747632e-02
-3.719994674358559350e-02
-3.761381099532795647e-02
-3.776735874454362207e-02
-3.763444473251797984e-02
-3.720119613732039698e-02
-3.647068020795152243e-02
-3.546658288616272303e-02
-3.423540181500903112e-02
-3.284660271890890715e-02
-3.138999344686230208e-02
-2.996961973919273770e-02
-2.869403161004288605e-02
-2.766362504713493209e-02
-2.695649157936219620e-02
-2.661452884923512507e-02
-2.663153435512477518e-02
-2.694485702333987431e-02
-2.743205955222488557e-02
-2.791384613762371014e-02
-2.816400139056671192e-02
-2.792618016763026567e-02
-2.693629467621524998e-02
-2.494834570565354626e-02
-2.176111085044252214e-02
-1.724310120394134671e-02
-1.135338085404910546e-02
-4.156054451441959507e-03
4.173431441040875711e-03
1.335139356402006983e-02
2.299879036657889730e-02
3.266346491771848770e-02
4.185082400271381009e-02
5.006158929447145078e-02
5.683457826381561884e-02
6.179143611334066144e-02
6.467908537880187603e-02
6.540483407948344263e-02
6.405897123571094309e-02
6.092044140612777603e-02
5.644277501283249954e-02
5.121962960052969804e-02
4.593172494360872604e-02
4.127933413959730680e-02
3.790663279650387241e-02
3.632587319014368710e-02
3.685017770111574664e-02
3.954340819175879151e-02
4.419399540575452701e-02
5.031709898966812977e-02
5.718653592154175624e-02
6.389493606645751944e-02
6.943756639172117551e-02
7.281216890115918550e-02
7.312440156081120857e-02
6.968695379752150310e-02
6.210089972487911614e-02
5.031034590752053726e-02
3.462506334480736081e-02
1.570943660553834886e-02
-5.460943461530531895e-03
-2.767134099063037200e-02
-4.956279460151952199e-02
-6.974215581926113128e-02
-8.689794341133080802e-02
-9.991192344857544039e-02
-1.079565736922322439e-01
-1.105698323706840180e-01
-1.077004904932767348e-01
-9.971998680735968956e-02
-8.739910381554197305e-02
-7.185114561733046967e-02
-5.444645348649967964e-02
-3.670613037655409694e-02
-2.018499153440156402e-02
-6.354584557751896678e-03
3.503424698183016384e-03
8.384810217887006534e-03
7.624883874584292842e-03
9.315102497283733740e-04
-1.161139499913960149e-02
-2.956698924474196466e-02
-5.218942101105053522e-02
-7.848074887620032358e-02
-1.072524357889416968e-01
-1.371837238605377873e-01
-1.668710435264064706e-01
-1.948652086388583671e-01
-2.196961372496552545e-01
-2.398879451973110200e-01
-2.539702682165941305e-01
-2.604942651034571899e-01
-2.580633792521747627e-01
-2.453887819378395285e-01
-2.213766894668284801e-01
-1.852490873774953750e-01
-1.366912557338213485e-01
-7.601018364829006946e-02
-4.279515457426968927e-03
7.655857086909491349e-02
1.636642693954281635e-01
2.533677864063325069e-01
3.413465880224921811e-01
4.229101727602601057e-01
4.933731835864669790e-01
5.484803773834163731e-01
5.848321293191290904e-01
6.002503684765507774e-01
5.940259116615278501e-01
5.670014757969262797e-01
5.214697066152328420e-01
4.608982280945080334e-01
3.895264894853837645e-01
3.119029349170630017e-01
2.324384057990091512e-01
1.550408198992436204e-01
8.287178785017942917e-02
1.823671921987801703e-02
-3.740540517053697611e-02
-8.334305017842105756e-02
-1.194612343571562485e-01
-1.460747349198673051e-01
-1.637746203335594952e-01
-1.733076492890197606e-01
-1.754975545669022474e-01
-1.712075668480770863e-01
-1.613360612517271975e-01
-1.468327038825647246e-01
-1.287209560898983363e-01
-1.081137409154508400e-01
-8.621188694818079923e-02
-6.427914315311406002e-02
-4.359256353125534611e-02
-2.537212713776257345e-02
-1.069765099392686047e-02
-4.236097241914205114e-04
4.896826698087247687e-03
5.068086365131257987e-03
2.803638804210195623e-04
-8.895864611257575660e-03
-2.155071520589560419e-02
-3.650855099727792763e-02
-5.242763725816770859e-02
-6.791586143237421380e-02
-8.165097748740068884e-02
-9.249376324490954371e-02
-9.958353370557307405e-02
-1.024072532612169961e-01
-1.008359554368803424e-01
-9.512537633804318826e-02
-8.588145694339929803e-02
-7.399506234515407233e-02
-6.055315449771506153e-02
-4.673535584550875255e-02
-3.370552888472655440e-02
-2.250807527980050460e-02
-1.397826396612394939e-02
-8.674766708680697880e-03
-6.840429794001207098e-03
-8.394273296584792154e-03
-1.295430732024802079e-02
-1.988757857904188686e-02
-2.838135755314113995e-02
-3.752775941618818889e-02
-4.641330003068672161e-02
-5.420474514561215984e-02
-6.022310322010412942e-02
-6.399891291778858626e-02
-6.530414831384886987e-02
-6.415882373807269001e-02
-6.081319843941659919e-02
-5.570890730051600293e-02
-4.942419194074748612e-02
-4.260965347696615835e-02
-3.592152707219833929e-02
-2.995924658013449093e-02
-2.521298271995967011e-02
-2.202514334785685146e-02
-2.056801642561509325e-02
-2.083827024940751449e-02
-2.266798072853712376e-02
-2.575090053437892323e-02
-2.968143014369115096e-02
-3.400218322761056067e-02
-3.825463611209325987e-02
-4.202676937959343162e-02
-4.499221668113781436e-02
-4.693705702471800967e-02
-4.777243095552599628e-02
-4.753301752886382459e-02
-4.636281297630820419e-02
-4.449070925318635017e-02
-4.219924112745224165e-02
-3.979048014124902943e-02
-3.755315784164062198e-02
-3.573456322807655461e-02
-3.451970180861002602e-02
-3.401893347776974164e-02
-3.426413404794545481e-02
-3.521248865712986453e-02
-3.675629734405191917e-02
-3.873666829001340406e-02
-4.095885397008031115e-02
-4.320737631958279645e-02
-4.525985550869632279e-02
-4.689924542314716227e-02
-4.792465314910268614e-02
-4.816095964473462998e-02
-4.746718581123954284e-02
-4.574325324692393724e-02
-4.293475060435480994e-02
-3.903554827953853446e-02
-3.408833010939218977e-02
-2.818309282741218724e-02
-2.145348834047478004e-02
-1.407084714985484819e-02
-6.235988362238015226e-03
1.830652737559113064e-03
9.899778173509621304e-03
1.774413515474809744e-02
2.514917574252914512e-02
3.192334124123877293e-02
3.790782720248270232e-02
4.298541364731582604e-02
4.708768810962410400e-02
5.019992840182965765e-02
5.236296827173834989e-02
5.367140276963333623e-02
5.426755210030709264e-02
5.433087884335006945e-02
5.406314142525830979e-02
5.367037307028041382e-02
5.334354397423948790e-02
5.324017548809525935e-02
5.346904080636655232e-02
5.407953326638439973e-02
5.505667672631198162e-02
5.632235454694109467e-02
5.774304793954983250e-02
5.914388287893057594e-02
6.032792179262815024e-02
6.109860896452487533e-02
6.128253387671686592e-02
6.074954924609000939e-02
5.942775891196069860e-02
5.731170182581050987e-02
5.446294133434126383e-02
5.100315249373255089e-02
4.710072516572927359e-02
4.295281486293210660e-02
3.876544417852462177e-02
3.473439038211714736e-02
3.102907638134039248e-02
2.778074911508260358e-02
2.507532246752480765e-02
2.295066751519039827e-02
2.139782778783427819e-02
2.036545534826442183e-02
